0.17953483953787916
1.4920679491880031
6.179844488719677
17.427823140728435
38.418364136663484
71.549187501347
118.03510591315592
177.79987166297082
249.57269966389526
331.11358587372996
419.5037572354503
511.4530640420132
603.592409743224
692.7306680000695
776.0603600022498
851.3009047781455
916.7793998305498
971.4584224964121
1014.9212554537959
1047.3219416984393
1069.3077337430473
1081.9278732051341
1086.5478690018165
1084.787610901366
1078.496165768508
1069.7598128416998
1060.917959543555
1054.5525707486338
1053.4204038733112
1060.3069610198856
1077.801870414295
1108.022885499466
1152.3364096764187
1211.1278799491627
1283.664230802161
1368.0720243015076
1461.4351741250848
1559.996851686503
1659.4374549035083
1755.1960715266966
1842.8006914789346
1918.172824839369
1977.8801771859985
2019.3229290206875
2040.8466045800794
2041.7786932490624
2022.393994174866
1983.8235652046553
1927.926288122977
1857.1404509249508
1774.3302645015995
1682.6370579675292
1585.338125111343
1485.7145218190394
1386.9288073887803
1291.910227349124
1203.247623996282
1123.097789667325
1053.1162970990122
994.4134491376237
947.535198868113
912.4680511774296
888.6705846446426
875.1339495174929
870.4679231678172
873.0061223242718
880.921146933789
892.3379801519928
905.4387923076326
918.5566322503319
930.2519010746836
939.365997754269
945.0525785168157
946.7882675734396
944.3646547043826
937.8631709915784
927.6136883872948
914.1429568170977
898.1216743387675
880.3117813996079
861.5139498840867
842.5205762460535
824.0764563329959
806.8454233664567
791.3863292546356
778.1418419419863
767.4356556527149
759.4724558518768
754.3406501228321
752.0195142848686
752.3905535610479
755.2525764818145
760.3389338720459
767.3357697365241
775.9024451529608
785.6938440400651
796.3845489497935
807.7016844591303
819.4785229601403
831.7389720050179
844.8101934067337
859.4373805235247
876.8571351414423
898.7855411127523
927.2922646232428
964.5607559174882
1012.567694936814
1072.738036453915
1145.6386025151892
1230.7638299435491
1326.4475557464793
1429.9130276762505
1537.4522225721269
1644.7046375691161
1746.9946708303407
1839.688452025554
1918.533515365507
1979.9473704418579
2021.2306814261717
2040.6939591257942
2037.6992482792132
2012.6276554939548
1966.7859128526607
1902.266106549675
1821.7781143619418
1728.4751786113013
1625.785201247843
1517.2529602141924
1406.3955079516682
1296.5728080157578
1190.8755576505916
1092.0312064364448
1002.3282364595991
923.5570149628218
856.9663711032672
803.2389539922842
762.4901145667551
734.293841146326
717.7359925520308
711.4911608933235
713.9173244142653
723.1626687139022
737.2777381069498
754.3241239664036
772.4738974272893
790.0943325657265
805.8108211939182
818.5472244887056
827.5465562458048
832.3729459214007
832.8974825861537
829.2696313761522
821.8746782601476
811.2825055629601
798.1930629341387
783.3811073208738
767.6455142196108
751.7669800581089
736.4721281893476
722.4037708070553
710.1017620383008
699.994293785977
692.392669410397
687.4889786096494
685.36269053604
685.9938126929484
689.276204746685
695.0317339546831
703.0266052095703
712.9859888357565
724.6054449255324
737.5639955220414
751.5402882230269
766.2264782759937
781.3365021165907
796.6104820294377
811.8187091811238
826.7725554584991
841.3587163275915
855.6136931186599
869.8378621158721
884.7259510465059
901.4746596934514
921.8168296671097
947.934359669667
982.2344824925581
1027.0190543836275
1084.1045314054354
1154.4612508777332
1237.9380556299086
1333.1194213905667
1437.336397358277
1546.8260325383337
1657.0112832091609
1762.8619809676816
1859.2924743867097
1941.5503212199123
2005.556862419368
2048.1705980195643
2067.356153640764
2062.255889217722
2033.1713340524848
1981.4674761749698
1909.4192366259938
1820.0234082742215
1716.7968603003428
1603.5753586312817
1484.3239994984267
1362.9686712375685
1243.2516708157361
1128.60904992018
1022.0685476206813
926.1673548197466
842.8860966507525
773.5992388122834
719.0485243867694
679.3444517546529
653.9956033747931
641.9628027062795
641.7362950550076
651.4362016288306
668.9313065305611
691.9650159935434
718.2794320113431
745.7311771958713
772.3912554043577
796.6223399912304
817.1314792360832
832.9987734317555
843.6829997547476
849.0057744705467
849.1174701487278
844.4505996662105
835.6643157529348
823.5801348342687
809.1132955528013
793.2091696442282
776.7897300078403
760.7093028388427
745.7198396706793
732.4481128078917
721.3858700167978
712.8899895511406
707.1871593019092
704.3800816258798
704.4568670037512
707.3058839833129
712.7338218032864
720.4836864460037
730.2533881394121
741.7150109683507
754.5312886632167
768.3668484618936
782.8959605145096
797.8116197471726
812.8435222559464
827.7967854529253
842.6249142460077
857.5426497269964
873.1631118529176
890.6167161331854
911.5959450647944
938.2800806477205
973.1230069747346
1018.5250762955435
1076.4427454617212
1148.0063927997053
1233.2167472572532
1330.7758731711767
1438.0801174034964
1551.368628171792
1665.9973189029558
1776.7979856820084
1878.4793346775882
1966.0279463355039
2035.0698974665283
2082.159828294868
2104.9771605324186
2102.4228589820054
2074.621034207643
2022.838280690587
1949.338634829318
1857.1944214303496
1750.0750571109168
1632.0346257894562
1507.3114531587812
1380.1448858055232
1254.6109997458038
1134.478732979851
1023.087796592629
923.2472588869732
837.1537883448823
766.331501272037
711.5976428202966
673.0587765498475
650.1388406501718
641.6386453298692
645.8265097277779
660.5552230208983
683.3969322275374
711.7875763596292
743.1708299385317
775.130539893727
805.5028324478908
832.4624441893543
854.5818321675151
870.8658091639771
880.7621745598342
884.1443905246975
881.2690426698505
872.7187113850587
859.3375244357817
842.1604567748869
822.3378157176481
801.0598219271516
779.4872651892285
758.694359961711
739.6267080100868
723.0715241673423
709.6374399392975
699.7437251030224
693.617988560377
691.3030164061151
692.6749387063803
697.4711299099694
705.3247061160637
715.806670278172
728.4844588180553
743.0118402603316
759.2579553017908
777.4631276822385
798.3858895314468
823.3864650585477
854.3908634644977
893.7063079323725
943.701307249818
1006.4034304679036
1083.0898021832031
1173.9432734517509
1277.8334430397279
1392.26224261929
1513.480474695995
1636.7494249580793
1756.70662093616
1867.7869536472094
1964.647383390914
2042.5516351317037
2097.684600887126
2127.3770388473013
2130.2292582673945
2106.1315916008666
2056.1913222059325
1982.5866204179833
1888.3735081081331
1777.2703351139296
1653.4390424589933
1521.2765572391052
1385.223618570487
1249.5947541831176
1118.4308136168654
995.3722251824111
883.5511333250834
785.5038835746896
703.1054167606334
637.5255134830403
589.2091903791916
557.8882655983841
542.6304496429127
541.9213034594628
553.7665702655886
575.8100537873086
605.4675705382884
640.0696275318263
677.0016225167238
713.8342432079045
748.4360477917362
779.0577424835305
804.3826850678478
823.5470606930481
836.1355582546777
842.1532423388297
841.9737983218843
836.2711406547157
825.94344268389
812.0343747328347
795.6552800904439
777.9140598815067
759.8551570728577
742.4134102908339
726.3829254480736
712.3967858301587
700.9141452436154
692.2180782698553
686.4264667344955
683.5120205724309
683.3289610743825
685.6536615088128
690.2551756552276
697.0091416351921
706.0511213247428
717.9401410664298
733.7835278499567
755.2690145316034
784.5641180814212
824.073933547583
876.0854018565461
942.3568629864876
1023.7286088384103
1119.8283754125923
1228.9243202711675
1347.9455222461584
1472.659629768797
1597.9765389500137
1718.3350627682294
1828.1251413847056
1922.102316728343
1995.7564461940062
2045.6005686200065
2069.3572078128036
2066.0357454875893
2035.9089171901833
1980.4087592721726
1901.9673655158983
1803.8238763605004
1689.8146623249822
1564.1603453090133
1431.2600890589927
1295.5037725163425
1161.110400889181
1031.99093978716
911.6280746903599
802.9723010272407
708.3606880600978
629.4619609463027
567.2463019216386
521.9799250281604
493.24909314683043
480.015841142795
480.7009198931126
493.28843911765847
515.4489550375707
544.6743267771717
578.4133028278475
614.1991459587202
649.7633488446849
683.129817814555
712.685892079541
737.2273899385463
755.9752287787869
768.5637275477031
775.0047422621774
775.6363647829612
771.0636990784002
762.0939779047219
749.6675285053966
734.7881486383263
718.4588440231522
701.6289839474458
685.1533556937638
669.7609775668154
656.0363157917805
644.4146215375722
635.1864420061816
628.5114941451935
624.4546578688091
623.0594179859404
624.4672410673527
629.0771165555367
637.715593095791
651.7623807492961
673.1681968941054
704.3237845724722
747.7800498491549
805.8577978555868
880.214826810008
971.4522118626325
1078.8335578091974
1200.1643636015663
1331.8461219143637
1469.0933922163574
1606.281745680821
1737.377272971309
1856.3912127638675
1957.809852649496
2036.9618930498086
2090.2963765716477
2115.556073193885
2111.8437534737964
2079.5891851786732
2020.4345638435693
1937.0627448698488
1832.9907285778208
1712.3460429032293
1579.6415831014244
1439.5610859523538
1296.7616610172743
1155.6974472577153
1020.4690171624256
894.6994009194416
781.4321454216803
683.0483482876888
601.2064687638634
536.8110525252839
490.0135820988745
460.2476440922061
446.29844669963694
446.40108373914757
458.3601298727118
479.68527552266096
507.73568506415234
539.8619434216273
573.5378758412628
606.4776552829321
636.731649081653
662.7551971330948
683.4457322756274
698.1462861285269
706.6205176499624
709.007955011469
705.7659101291066
697.6018467485409
685.4004982100795
670.1520876233292
652.8860995633485
634.6120662591998
616.2702429125602
598.6944232860587
582.5854291498575
568.4965544201104
556.8391129312096
547.9219976415875
542.0419435146338
539.6292653897148
541.4249565582826
548.6362684339304
563.0067837075336
586.751185400779
622.3379853081027
672.1430117110492
738.0322394853687
820.9531560405604
920.6131255158652
1035.3039018070422
1161.9006215544232
1296.0287810449106
1432.3657779393138
1565.035065997846
1688.0481815435933
1795.7428267088023
1883.1692470496434
1946.394427666191
1982.7092506672273
1990.7337904177575
1970.4226243413868
1922.9795688073866
1850.7019133376334
1756.7799797281398
1645.0746657787665
1519.8910801683874
1385.762341781876
1247.25162480732
1108.7760024728448
974.4527127488618
847.9681442276255
732.4723479175381
630.4995395157067
543.9113065410927
473.86238082807324
420.79195402284086
384.44226148975724
363.906714934461
357.7098200227794
363.91507343159486
380.2515794368155
404.2513109354447
433.3894270328254
465.2160385663453
497.4679817005434
528.1566908766791
555.635476918708
578.6475789450335
596.349724439113
608.3074083608735
614.4655018777112
615.1018282080454
610.7696395892638
602.2316381417696
590.3901434387379
576.2197925075819
560.7047218431484
544.7817338373524
529.2946269537501
514.962305188346
502.36003508147894
491.91412103921834
483.90971011077403
478.5128766076405
475.81838431925615
475.9437093871819
479.1781962197999
486.16362459031313
498.0513823853851
516.5709657325368
543.9595377104615
582.7355236182561
635.3397502117908
703.705406891401
788.8390294081134
890.4915536650368
1006.9785734952945
1135.1785637437793
1270.7030836618592
1408.2058241367176
1541.7842247396732
1665.4245603059826
1773.4427416187134
1860.8780343274916
1923.8061351048084
1959.5506273022704
1966.785538514426
1945.5330550577828
1897.0708727712279
1823.7719098037787
1728.9002123674986
1616.3831467342943
1490.5776318390767
1356.0477934324983
1217.36608630209
1078.9403066423697
944.8637693593612
818.7865990076439
703.8091541662337
602.4008587314851
516.3470893608229
446.724272495724
393.9020747145303
357.57333546404533
336.8115354631422
330.15100404256594
335.68668382281976
351.19338340741933
374.2590961832766
402.4220905529267
433.30059166000717
464.70253263162977
494.7083966226428
521.7300198940856
544.5483766099699
562.3285195972792
574.6116241431635
581.2892694852261
582.5665990850214
578.9175487613511
571.0307403719584
559.7458856046742
545.9871879022489
530.7031283203474
514.8171101926999
499.18657702932
484.5675719840217
471.5870894779703
460.72755631369495
452.3230610213208
446.5652454573083
443.5217012982441
443.1747915168104
445.4931861424529
450.5484126026101
458.6714972862293
470.61508330766287
487.6679050072421
511.66756453920175
544.8717988748081
589.6843741177688
648.276927443607
722.1773067305703
811.901521881635
916.6946399254739
1034.4230251715435
1161.6341707765705
1293.7719716750132
1425.5104023291628
1551.1564581013195
1665.071825147718
1762.0696539074615
1837.7537760799094
1888.7749293851655
1912.9900362405224
1909.5277618711962
1878.7691529662761
1822.252130506505
1742.5173281036225
1642.9164108910127
1527.4003621215745
1400.3051600079477
1266.146548700028
1129.426421795856
994.4540820483289
865.1890238710694
745.1093309829887
637.1062146500284
543.4057353296761
465.5200233779219
404.228446807815
359.58946726780357
330.98600947287264
317.20340910003017
316.5327773014352
326.89134292193893
345.95255550590804
371.27850163418526
400.44779724898115
431.1724148680825
461.39682782471056
489.37542847502266
513.7255034511054
533.4536835746896
547.957791433388
557.008475095933
560.7133276784945
559.4661059413097
553.8870992070372
544.761192790329
532.9753036699161
519.4559140661291
505.1120680241985
490.7886512431975
477.2315355326185
465.06630633451294
454.7885730414898
446.75934768305876
441.2032051107339
438.2135732830635
437.7692636190442
439.76443094099835
444.0610928979804
450.5805154900952
459.4382897998774
471.1024243447083
486.5330076544628
507.25069279263994
535.2823005872392
572.9578053700859
622.5793918405202
686.0230022869944
764.347804965847
857.4835953301844
964.0502386767558
1081.3374064380218
1205.4418235696996
1331.5378780438934
1454.243214239152
1568.029963284625
1667.6348123134817
1748.4278828472934
1806.7056694133653
1839.8891944423626
1846.625538001038
1826.7976450046103
1781.4535758657642
1712.6744506810273
1623.4027026570416
1517.2488412215346
1398.288850687868
1270.8610656916787
1139.3722842577736
1008.120357134213
881.1350631131775
762.0374169598816
653.9198723501472
559.2527654745983
479.8205606673297
416.68603857853384
370.1816332996887
339.9333492697476
324.92106433429564
323.57045644582854
333.8669165368633
353.48341631321387
379.91806510500356
410.6348876269606
443.1963983073107
475.37982043777447
505.27250887396303
531.339764776072
552.4601353039975
567.9309721106586
577.4516770040617
581.0896659476094
579.2310978680983
572.5206232235035
561.795705247053
548.0189745731142
532.210648920224
515.3840130528313
498.48927925785915
482.3692747641627
467.7270862352877
455.1076724947501
444.89481948796134
437.31902268453496
432.4733812933032
430.34260948171215
430.8532737882758
433.9551838486717
439.74440651525134
448.6212798492089
461.4455902844135
479.63046588429023
505.11933947728613
540.2162390515809
587.2808558043143
648.3369615552343
724.66392510237
816.4483162235324
922.5615910190825
1040.5012636969518
1166.4999731187959
1295.778700043152
1422.9037761025604
1542.2003677102784
1648.173656566435
1735.8964896543014
1801.331279213168
1841.5611776409928
1854.919139099041
1841.0175064850778
1800.689843291319
1735.8635011630263
1649.384282771653
1544.812654804026
1426.2081323016212
1297.9189516391275
1164.3898673183833
1029.987246104526
898.835893881608
774.671943671744
660.7223338925852
559.6152134209758
473.31638230872977
403.0872969729801
349.46849351129447
312.295308544555
290.74697354787173
283.42401489108545
288.44934105448715
303.59075944340964
326.39928551592214
354.3517572571756
384.98567809694407
416.0190400568793
445.4500749767879
471.6308760021044
493.3128054642633
509.6656530804855
520.2713415241437
525.0943474224836
524.4341454190867
518.8643658760616
509.163093733652
496.24093312133004
481.0734985238364
464.64226633521827
447.8851132495202
431.6557256549708
416.6906144957064
403.58453211558816
392.7765630202485
384.5480922490177
379.03254588710206
376.23875952692646
376.09607294788515
378.5359101460281
383.62056903192115
391.7102870267326
403.6323764301991
420.7921795609362
445.16374408821684
479.12765019132905
525.1646247963865
585.4502054137894
661.4242928756713
753.4190706423386
860.414734386286
979.963656597137
1108.2902442183367
1240.543521101017
1371.1589939390467
1494.281203362911
1604.2008555060422
1695.7630022566277
1764.709652921018
1807.9298277118787
1823.6027376560742
1811.2362908274804
1771.6136555128837
1706.6644130546638
1619.281828518845
1513.1113413149837
1392.3310717652143
1261.4357075982327
1125.0299038246333
987.6379627411491
853.5344367874154
726.5966277896911
610.1813593953001
507.028350194831
419.18891607839225
347.9798812699595
293.96738365883647
256.9852997552039
236.18692920060647
230.12545099423795
236.8609733167898
254.08977932490333
279.2861074025511
309.84655820904396
343.2277039334471
377.0682502577317
409.29041791059836
438.1761817753687
462.41580465428444
481.1297033380616
493.8648590935848
500.56684123630953
501.5306983067458
497.3368607983943
488.7788588062336
476.78826627688267
462.36272483886535
446.5025066089624
430.15693923141333
414.1805439902698
399.30180879030087
386.1066460455274
375.03331460970963
366.37657148471646
360.3095746555127
356.94068415383225
356.4194643878078
359.0908846106688
365.66817098055776
377.3696908422361
395.96213251200487
423.6658954164468
462.9087578850149
515.9587484767402
584.5023549002835
669.2468904968961
769.6224831405526
883.641263112205
1007.9370166616127
1137.9693294468452
1268.3530147504443
1393.2675729781542
1506.897652232581
1603.8558473500555
1679.5495603569975
1730.4629659901664
1754.334107089994
1750.2249239718615
1718.4975069976063
1660.7151429001979
1579.486427408898
1478.2687476156325
1361.1483902733019
1232.61513570124
1097.3450378638372
960.0002691453101
825.0496635727018
696.6085774153596
578.297527769603
473.1240028621306
383.39284620823605
310.64698113033893
255.63923631037807
218.33814480014678
197.97083326139585
193.1040981476304
201.76023118456015
221.55725692167215
249.86067562852026
283.9379756975057
321.1082767751164
358.8758134540613
395.03802200557135
427.7658955335689
455.6567523077061
477.7585164301849
493.564381138921
502.97869271066486
506.260246819287
503.95289819614663
496.81261526235784
485.7377425884698
471.7048133345243
455.7099081023211
438.7174729913355
421.61953120246613
405.21034831215627
390.1861728957402
377.183680830682
366.8703421758799
360.0838507013428
357.98537673921993
362.1657177103271
374.64557945910616
397.73681296362054
433.7670274958432
484.70890599948035
551.7851131878144
635.1278393443199
733.5599464624609
844.5369547514795
964.2546952533514
1087.9007342360464
1210.0116858654305
1324.8883857555331
1427.017927786772
1511.4592291134595
1574.1615909817665
1612.1944140729336
1623.875766002658
1608.803462114487
1567.8047474672626
1502.8220679935985
1416.749663267709
1313.2371896036232
1196.476610169685
1070.9843204308813
941.3897400319272
812.2387500224179
687.8120597241676
571.9577556624902
467.9452435186761
378.3511381073862
304.9812929185178
248.82929299744524
210.0761017483769
188.13406633777564
181.72842956480608
189.0068577416822
207.67288332191387
235.138121805611
268.6816931012956
305.6043012010443
343.36772179088626
379.7112899279427
412.73884214030994
440.975669771484
463.39800192326044
479.43615506331986
488.9513811357742
492.1871160760844
489.7003515516201
482.2840867928265
470.88898493380054
456.5474057397222
440.3043411603123
423.16023384414086
406.0272145200131
389.69919175886764
374.83780900919703
361.98078105419745
351.58618564707365
344.128849828624
340.25007686737854
340.9283612746427
347.61193873532005
362.25119519426335
387.186775097944
424.88673865122166
477.5692691594211
546.7777952234179
632.9913396945893
735.348801808428
851.539044205032
977.8726713969933
1109.5176350302318
1240.8569546279855
1365.9182610023872
1478.824990322746
1574.2204352177414
1647.6227872704499
1695.685109553091
1716.3528744939601
1708.9214711501309
1673.9967972114437
1613.3717301354416
1529.8466856654697
1427.0220701553633
1309.0784153602779
1180.5540767949512
1046.1303867350634
910.4317793202827
777.8446266159444
652.3549505057919
537.4056389267305
435.78094062039725
349.52706038123586
279.90978168298085
227.40723815710385
191.7383754978634
171.92637036303378
166.39271835623063
173.07714501245977
189.57849821294565
213.30788435912453
241.64122009733276
272.05935083473105
302.26797849589593
330.29278525622357
354.547197729895
373.87231272129895
387.5493614908848
395.2850724632172
397.17358588745344
393.6423906813633
385.3870783661753
373.29678721317225
358.3764197218293
341.6736578267072
324.2138105284537
306.9439985336978
290.6911255985632
276.13660739130256
263.80515799395766
254.06382221335213
247.13233857451172
243.11207685034486
242.04633451037645
244.02487635719834
249.33389905058766
258.625529411451
273.04966932415476
294.2837791191959
324.42085721962377
365.7133324714979
420.20705107173507
489.33052260446146
573.5236595152334
671.9834238399758
782.5690843079077
901.8726366760295
1025.4372697826407
1148.0895591949609
1264.3382314420896
1368.7926104546418
1456.558497015018
1523.5716148435763
1566.8395374073305
1584.5812089325066
1576.266798411676
1542.5684011028477
1485.2395326659919
1406.9464218049895
1311.0715484634338
1201.505586322251
1082.4415447544927
958.1797510940394
832.9468715347796
710.7306108078369
595.1336601165415
489.2525096932775
395.5857715727983
315.9731189991024
251.560837204152
202.79065330285158
169.41826364724224
150.5697160524664
144.83184597225375
150.3665519646949
165.04119909035546
186.5654719360924
212.62166102858546
240.98044210414207
269.60046296924514
296.70885694113065
320.8594554267945
340.9689448930852
356.3302442140277
366.6021204857988
371.7793195493558
372.149179294837
368.23869874532585
360.7562561690519
350.530996982991
338.45045072186207
325.40061750663847
312.2174752536136
299.6524741881382
288.34608332445606
278.8068143297156
271.3994779929371
266.34657813861264
263.7420772964671
263.5706283121274
265.72671312644457
270.0378111166595
276.30442507787717
284.3726672925331
294.2476764025884
306.23468219526745
321.0688030851851
339.98282255725866
364.6709681443862
397.1298712020845
439.3874423202741
493.1591006007715
559.4934075771339
638.4784644621768
729.0672555074547
829.0484176101384
935.1577258514305
1043.3072204873333
1148.8993408266592
1247.18712867646
1333.6366461440987
1404.2498041807578
1455.8198398532274
1486.1065610889088
1493.927652245164
1479.1692994231419
1442.725903321582
1386.3850642007635
1312.6766913652218
1224.7033344964298
1125.9640592894664
1020.1795546471699
911.1250539035618
802.4750313515644
697.661653413953
599.7508896354692
511.33805882982267
434.46282316807014
370.54810147635243
320.36931781082245
284.05727545381944
261.13353491385635
250.5752993663815
250.9062468975701
260.306512355771
276.73412184880533
298.05091265232085
322.14359512407873
347.03124902440965
370.95563446542866
392.4515714504025
410.39249673909364
424.0103096108292
432.8929060383598
436.9606048298697
436.42381081180844
431.72992175652183
423.5077880814851
412.5133847728191
399.5767142404689
385.54991337609385
371.25850067980264
357.4586699678012
344.8039597170674
333.82327080075447
324.9083805204214
318.30936295851564
314.1393377334026
312.3889511108991
312.9498684933654
315.65006319774363
320.3113026417651
326.8407707795577
335.3534342244236
346.30049875412556
360.5661603614157
379.49064419861185
404.7861973440124
438.33835183231594
481.91717937298125
536.8494822518735
603.7156940758168
682.1285072393543
770.6294737622413
866.716610441112
966.9946389519419
1067.423099066303
1163.6276866878175
1251.2372009737421
1326.2098374548975
1385.1139677494805
1425.3366678785235
1445.2095451330927
1444.0536934354625
1422.1529840460987
1380.671638390495
1321.5322646905918
1247.2674694306097
1160.8596579622706
1065.5820048308026
964.8462466397584
862.0593366618407
760.492304328936
663.1642701610615
572.7406950682777
491.4454326072723
420.9916221236491
362.53645638897876
316.6598924370582
283.3689362589613
262.13277633694474
251.94639764320794
251.4136835115293
258.8457128860382
272.3703915309766
290.04598450717435
309.9715278161504
330.3843817544676
349.73694372463757
366.75443165455164
380.47430002747444
390.26062437079423
395.79352392623736
397.04319908520887
394.23567564163443
387.8107102854498
378.37167012319225
366.6317830466657
353.36192293077454
339.341463941601
325.3157877593258
311.96537851675896
299.88446306642373
289.5636152756358
281.37537224618455
275.56757815589634
272.26704545619435
271.4884511413961
273.14499042299775
277.06220183954537
282.994203526047
290.6423914102491
299.6770958317369
309.7598831844223
320.5698845792619
331.84424698297045
343.44334609807083
355.4481090002105
368.2814858503112
382.8215127362185
400.4562227574672
423.0351724231494
452.7008082052134
491.6162705595098
541.630063725346
603.9354831779374
678.7890648514264
765.339581694045
861.5930373537632
964.5122331635506
1070.2307897623919
1174.3494946460119
1272.2748538043252
1359.5606377329232
1432.220584523715
1486.986843812939
1521.4946692210672
1534.3815523461942
1525.3022563352279
1494.8769328130904
1444.592509111379
1376.6691144442834
1293.9015637701984
1199.4911796186534
1096.8814962957088
989.6038687376633
881.1356226936609
774.7715030430965
673.5069251406702
579.9341402223093
496.1569454617787
423.73010896328583
363.6266167378563
316.2332155753052
281.374266592238
258.36193486695095
246.0675802474205
243.01009863115047
247.45851274128123
257.54216538922435
271.35927325356107
287.0780124193467
303.0247070991062
317.752516407413
330.08916378595296
339.16648723788586
344.4317246916722
345.6377874498625
342.8142701419189
336.2265515121927
326.32942429783225
313.71909297760715
299.0867157798918
283.17501028796886
266.73728056426813
250.49889629065183
235.12408214018848
221.19050390273384
209.17130474873815
199.42393828927018
192.1867396718219
187.5838445922228
185.6355378227601
186.27015769761624
189.33694266261148
194.6204214761145
201.85591421011827
210.74512000623662
220.9708284134558
232.2107196478431
244.15098571377285
256.49996374842107
269.00266481472977
281.46290984620515
293.7867433739065
306.05936745651405
318.6534025830349
332.34295961429734
348.380396991178
368.49283899102096
394.77007682461306
429.43840502096754
474.54629579288564
531.6179146955126
601.3415153827641
683.3497623337067
776.1276057758685
877.0576396388661
982.589492769078
1088.5040459733054
1190.2362560763195
1283.2180336959582
1363.2051760793956
1426.5607076406354
1470.473339741282
1493.0962342515008
1493.6042344513655
1472.1788569012149
1429.934247771989
1368.798331531839
1291.361963891425
1200.7079704126102
1100.2371373060073
993.5082679817724
884.0952670736642
775.4540200910952
670.7964520910498
572.9751540901409
484.3834078886239
406.87786427199467
341.7307712624177
289.6116272896996
250.59435145921532
224.19004707620263
209.4068951837804
204.83324129022355
208.7381640529358
219.1868522092238
234.16273686836578
251.68223679679957
269.89420780353237
287.16252798999983
302.1300195806922
313.76140736577173
321.3627414506991
324.5773147399359
323.3625648695337
317.95310230081253
308.81546865461706
296.59748021718343
282.0697599656288
266.06363214835744
249.416246257227
232.92529068736513
217.31029407944104
203.1835805628689
191.03496637276726
181.22857090825516
174.00730905152096
169.50086588307522
167.73532794354168
168.6450524166786
172.08676861553283
177.8551285958912
185.69912915034305
195.33787835663279
206.47285902745094
218.7953218437468
231.99172952431908
245.75251840244042
259.7859968966492
273.8368295602998
287.71481379078466
301.3460000082901
314.8554966110351
328.6778122064405
343.66768162914803
361.1659909867461
382.9762533093079
411.22509486912764
448.1100157404015
495.5721747293198
554.953895866038
626.7024934924352
710.172489358654
803.5609499125536
903.9836254284621
1007.671992450858
1110.2571578071415
1207.1047570233172
1293.6647086060375
1365.7994337637729
1420.0593724129376
1453.8857398591795
1465.7326969295402
1455.1091646686968
1422.54575954845
1369.50008801424
1298.2198741018885
1211.581982074195
1112.9201748679213
1005.8511470307205
894.1071029678506
781.38145024631
671.1911309268023
566.7550719492289
470.88574428000595
385.89399646053164
313.5128675746473
254.84784936530866
210.35847024200314
179.87089611293283
162.61937588393755
157.31654512371674
162.25118785884308
175.40744020582173
194.59614987248878
217.58623404766195
242.2251448649501
266.54374062584935
288.84197847048574
307.7506171539396
322.2674428465933
331.7680589539666
335.99197701837227
335.0097372704404
329.1784671781604
319.08932135188985
305.5093548928552
289.3218496448924
271.46791269479354
252.89027092383805
234.4818055947988
217.04467686250774
201.26339491443446
187.69013300408466
176.7386668056427
168.6838769146109
163.66754081290892
161.71091580506516
162.72997747659053
166.55058349209293
172.92435529663874
181.5459936481799
192.07113809750498
204.13299844274917
217.35720555247255
231.37529551404177
245.83934908599184
260.44476438516733
274.97001343685633
289.3425245519066
303.73630145266395
318.6917557037078
335.2254920889405
354.8805909588267
379.6717820601475
411.9066898462228
453.89776235355856
507.6083915627533
574.2946831965573
654.206925052948
746.4047434765511
848.7164666512984
957.8424158414695
1069.5818535682542
1179.153365501398
1281.5669547379512
1372.0015585984477
1446.1494327816554
1500.4984767080734
1532.5332080252986
1540.8464842547967
1525.1624719147298
1486.278332013558
1425.9429405490268
1346.6979473586798
1251.7007175820104
1144.5396812623062
1029.050736936846
909.1442101964344
788.6490240489545
671.1767481421288
560.0048440511914
457.9752471544076
367.4076802060765
290.03279221997826
226.94937974294044
178.60804626172506
144.824066891108
124.82259237027154
117.31623286104855
120.60618005374276
132.69454676393318
151.40152633640798
174.48387655886432
199.74977735713023
225.16382005159423
248.93618688471764
269.59207171466926
286.01699668080585
297.47497268966566
303.602120206174
304.38057408584393
300.0973099240881
291.2931270227775
278.70399338781397
263.1959873433479
245.7011695634456
227.16218350955614
208.4862637647224
190.5065493647815
173.94996934388195
159.41275471005147
147.34599217197734
138.05287826560044
131.69796707064805
128.325603567473
127.88121735431119
130.23108427797675
135.17973332503345
142.48458570274312
151.86828932621168
163.03004934014473
175.65481689498836
189.41995180527948
204.00364357891797
219.09682478562783
234.41602890794877
249.72103672433357
264.84945573695063
279.7806769839368
294.73599088519234
310.3068908189163
327.57823436054076
348.1908578508881
374.28938695832005
408.3311102963614
452.7736283042085
509.6923113488284
580.3957363589734
665.1086087315225
762.7787851552309
871.0378602939662
986.3148804131207
1104.084336943684
1219.2150559950342
1326.3724635072963
1420.4246633631578
1496.8095506116565
1551.831097657595
1582.8682172448039
1588.4889486201969
1568.469846314003
1523.733134446707
1456.2209645971093
1368.725596540777
1264.694313460812
1148.0259505098243
1022.8721301491203
893.4526226927617
763.8883027913209
638.0516815511611
519.4381332647156
411.06078054726447
315.36613905364936
234.16784824459415
168.601959988513
119.11030817975649
85.45655193712136
66.7750917910321
61.649177361380495
68.21275239029178
84.26982339516624
107.42365682851418
135.20858935599944
165.21833022233662
195.22206004146776
223.26007423749388
247.7157456012726
267.3618586483467
281.3803090908116
289.3591352715185
291.27053316946865
287.4286773108036
278.43059753795086
265.09055113952064
248.37344559147215
229.32682761689898
209.01404856954667
188.45410556383072
168.57402523139913
150.1776450645477
133.9276693465133
120.33466341450651
109.7519913041871
102.38128500686568
98.28954678875576
97.43039703316765
99.66360866917988
104.77377445168396
112.48717062079692
122.48504062027973
134.41513782032058
147.90365909042572
162.56896378063752
178.0374668082007
193.9599887953798
210.02633208563685
225.97978750841753
241.6429649667143
256.97330230505486
272.16124213834075
287.7637137495346
304.8369643394129
325.01401947481196
350.47281122284727
383.76430556279513
427.50879288155306
484.00209472566667
554.7991355447189
640.3560648315723
739.7975175317449
850.8449109905589
969.9144505061414
1092.3662680907435
1212.861747262214
1325.7792314170022
1425.6427414146453
1507.5194340073485
1567.3478204496987
1602.1758278688978
1610.300478168925
1591.3074806334764
1546.0205748673768
1476.3801382125907
1385.2706047352167
1276.3158027206046
1153.6623750118513
1021.7660554656813
885.188094028053
748.4082211676448
615.6594317645149
490.7838647198719
377.1067892963265
277.33005510381423
193.4521012915718
126.72080910567587
77.61850082998296
45.87673451100585
30.521963517325105
29.953948696867656
42.05632627319324
64.33316794548422
94.06074174278635
128.44368466520143
164.76533929578162
200.5219629481882
233.53250252398888
262.0188321080802
284.65538130609946
300.589366677605
309.43249594692435
311.2279262234898
306.3998950266163
295.6910397134482
280.0884599638496
260.7415736846911
238.8800880087594
215.7402513993793
192.50125394679623
170.23054502289963
149.84145074189772
132.06729829236218
117.45019188335718
106.34150690250249
98.91182556587967
95.16578727863067
94.95995236417163
98.02608197268195
104.00055866215534
112.45641140580281
122.93414233908055
134.97513805924322
148.17006982976045
162.23584440742223
177.13177918412822
193.21018057049935
211.36423110537004
233.11496231492256
260.5823978834771
296.307481120151
342.93201393194647
402.78767993305115
477.46885130070274
567.4648591838792
671.9139037440018
788.5185147946075
913.6345224531719
1042.5158732837763
1169.6746447084006
1289.3057324909632
1395.7268269184972
1483.7908588315156
1549.2346703711057
1588.935636285798
1601.0621298112467
1585.117978616233
1541.890909112364
1473.3229132531449
1382.3256054389083
1272.5652413892678
1148.2380342649474
1013.8497203946774
874.0113456385368
733.2587563991818
595.8932561199829
465.8388773803599
346.5173966434636
240.74496962781387
150.65334832142366
77.63724634061481
22.330153126175873
-15.387456999943495
-36.345210536121314
-42.00570522600299
-34.35591849250297
-15.775520545818495
11.10695475460441
43.56275179466343
78.90826825103147
114.63601100634688
148.52282476008008
178.71272094657655
203.77355941756983
222.72626469224835
235.04576031691332
240.6348467187085
239.77848048456795
233.08642178653426
221.42320086924283
205.82656516837977
187.4261678055127
167.37210715538876
146.77424379063962
126.65189972477586
107.8958966610301
91.2427655136213
77.2581810519987
66.33029119050343
58.67524270550736
54.351972435140326
53.28238023582321
55.27601526616686
60.05664022699357
67.28618297740944
76.58817362416863
87.58413421383713
99.96027577062715
113.57568906609721
128.61124991316836
145.73481085696875
166.2301335085267
192.0278629541382
225.5912260904262
269.64340528290865
326.7694900958912
398.96136683100093
487.18984842746414
591.0851141815801
708.7805075986629
836.9387612685221
970.9520821833876
1105.2851727472248
1233.9104994243326
1350.7784535088974
1450.2690097582617
1527.5803296536985
1579.0263680926212
1602.230043086125
1596.2058937268612
1561.3377402757524
1499.2697133396598
1412.7328966357732
1305.328667354257
1181.2903418284593
1045.2448835000262
901.9900773055415
756.2924694906569
612.7077344624108
475.4265312439843
348.14533850865973
233.95850465422149
135.27418636491421
53.75952785409385
-9.687239714508962
-54.93890213673325
-82.60820592613935
-93.97986519211656
-90.91118494965039
-75.70826739772649
-50.98372800496115
-19.504582029489924
15.957974948578403
52.766087481127215
88.53451994270232
121.22809689854546
149.23059014723813
171.3798720806584
186.97119215343508
195.7358518482961
197.802085446852
193.6415178613405
184.00456624167293
169.84859153365935
152.26242251029763
132.39354852618484
111.38309906942396
90.30998249742106
70.14669730497462
51.72789509685147
35.72904512770636
22.654696072502972
12.836926082470626
6.442645638670225
3.4882092836500576
3.8585648399699375
7.3286539799838675
13.587272157861612
22.26375215925023
32.96017176634269
45.29866601853632
59.000030275006175
74.00731053814053
90.6482582261186
109.800170062301
132.99668997685225
162.41288961544944
200.69019586397528
250.60849532958193
314.6549566887831
394.5621184655865
490.8974690857547
602.7826962349283
727.793374048106
862.049891136541
1000.4772839550467
1137.1901250864555
1265.9489712502423
1380.6359356473215
1475.7014530358965
1546.5417733540369
1589.7777257397613
1603.419176556405
1586.9162584034434
1541.1097499325035
1468.098423235546
1371.0446523392984
1253.9428136153663
1121.3757441603689
978.2756608011441
829.6979706173161
680.6157604292332
535.7383218234306
399.3506538302246
275.17171997112814
166.2345711998753
74.79254112337907
2.2553934339625528
-50.83783630445227
-84.80376735724849
-100.756516765653
-100.50863223918758
-86.43820678057422
-61.33268854561719
-28.218495268009363
9.812466348599656
49.76633126460712
88.89219229361876
124.80154084038891
155.55625743027974
179.72472517905436
196.40703184206527
205.22749937157482
206.29536980015533
200.14023201419758
187.63141521116503
169.88963443444092
148.1964603958262
123.90573759722287
98.3614794837913
72.82736621302166
48.43250986785992
26.13469635306322
6.697754126764522
-9.32065644322514
-21.57064246549903
-29.898864922435795
-34.32589462672618
-35.017991980080325
-32.257053415274484
-26.402831575316213
-17.829550300433958
-6.816877889985424
6.608358843593793
22.857740353740294
42.94587951782171
68.56640406450407
102.01935500912889
145.96867271318393
203.05616609830633
275.43724692733497
364.32534076780985
469.6300833074802
589.7516735363606
721.5617365691164
860.568455540059
1001.2363112692553
1137.4128771873984
1262.8062703665512
1371.457454345762
1458.1614092096195
1518.8036744054893
1550.5899399214559
1552.1579213064208
1523.5749220695398
1466.2409180975676
1382.7249358396525
1276.5578834444477
1152.0007803144356
1013.8054263143486
866.9794892557195
716.5645899940353
567.4360979635409
424.13017967163535
290.6961916041314
170.5705603084876
66.47315707301283
-19.67043423431707
-86.77667531854432
-134.61643521903522
-163.78700014552544
-175.64064773694722
-172.17395355377107
-155.88889657804503
-129.63419069498494
-96.43351038804238
-59.312846389312796
-21.14261540809703
15.496138863124422
48.41899056750317
75.91413238896779
96.78291555076851
110.3469342417332
116.42447275194618
115.28004902956773
107.5549427614508
94.18682841158373
76.32423165683076
55.240678532504845
32.253189733510496
8.647920644166895
-14.383814855260454
-35.79457467522647
-54.71488789082325
-70.47473709406873
-82.61031761782215
-90.85675659422529
-95.134311214573
-95.53135293460421
-92.28270645646404
-85.74391162078814
-76.36108195444514
-64.63095015155982
-51.038645798998616
-35.95959766900536
-19.519615646351937
-1.4189243976343633
19.246644662390597
44.099543652085806
75.4582953676522
116.14018052009348
169.0961275310997
236.9328631155252
321.41127865354025
423.016971237551
540.6798431782662
671.6859677575229
811.7912446628004
955.5178363314681
1096.5868501015573
1228.4217316315653
1344.6594556594134
1439.6183946589847
1508.6799816387006
1548.5567577161207
1557.4395888546892
1535.028546593219
1482.459235210748
1402.1433787759777
1297.5484854558658
1172.9454490510188
1033.147958289015
883.2583277551494
728.4316393529291
573.6677996328607
423.6332219610358
282.5086236755591
153.86186770579639
40.54637057141554
-55.375749141326594
-132.68251178113275
-191.00456573151484
-230.79590861842107
-253.26227719260967
-260.2493707601535
-254.09868135968742
-237.48498503592953
-213.25096350171108
-184.25079089600803
-153.2080960208377
-122.58934929886172
-94.49730532648115
-70.59553873737578
-52.07087323177096
-39.62958194281822
-33.51931807327761
-33.57200238796099
-39.264859228719295
-49.79232586150254
-64.14103306757195
-81.16788169403529
-99.68104328981298
-118.51582674622672
-136.59750276054365
-152.9894300419275
-166.92678097288893
-177.83439532319107
-185.32837631950642
-189.20570890958902
-189.42801350248504
-186.10179776329556
-179.45562109455653
-169.8167093970998
-157.58750325550648
-143.21919402656997
-127.18306678672931
-109.94494221584733
-91.94550329970524
-73.58555414411
-55.21431986082629
-37.1156520538665
-19.48171252948169
-2.3583745090257366
14.454588357150076
31.549164305070562
50.067798274486705
71.81198779667558
99.23407697836264
135.27268637623837
183.03029649988736
245.32938177246157
324.2208033713986
420.54026318522926
533.5979589524538
661.0525466287464
798.9849240247457
942.1550555165693
1084.3990063311091
1219.1105375512666
1339.7489818316285
1440.318131356379
1515.7719368503292
1562.321181750002
1577.6280586407029
1560.880284911434
1512.7491141931305
1435.2538913436308
1331.5627917338054
1205.755580451133
1062.5697007999759
907.1486978536382
744.8067826219728
580.8153766486934
420.21175182159493
267.62737182717615
127.13687052588136
2.133094907190241
-104.76879841934667
-191.7977347616437
-258.06051332104994
-303.53856457064273
-329.04349006814266
-336.12837858582725
-326.9614089789568
-304.1783061937692
-270.72476601386956
-229.69179814937695
-184.1531195442788
-137.01879003997882
-90.91191092202044
-48.07024681100367
-10.276412698392193
21.180624140200997
45.51359997375682
62.41771852953098
72.02800009982661
74.8574936355405
71.7217237610048
63.65646967909193
51.83517793336239
37.48875669845857
21.830617908468014
5.993656857032036
-9.014197652831848
-22.33593776612875
-33.28000524344463
-41.32894925005772
-46.141467418051306
-47.54574829460713
-45.52536003744892
-40.20164729016947
-31.81490763236993
-20.703931430524577
-7.284211921670998
7.9746796646583125
24.572789599708983
42.0047933536879
59.788720924896054
77.50664050071238
94.87230630160064
111.84133195079195
128.7650331864759
146.55861327404554
166.82477565829947
191.86557529258272
224.53494079888682
267.9245738506259
324.92105297939906
397.70941318625046
487.3173903416668
593.2861536706338
713.5236194983462
844.3586185544672
980.7796619562442
1116.818820176274
1246.0285762794567
1361.9922878714167
1458.8090450587213
1531.5054651434252
1576.3442003851894
1591.0144811564257
1574.702506327786
1528.0499467782863
1453.0210657326393
1352.7079954315543
1231.100588735294
1092.8397371875444
942.9710124822568
786.7116584155788
629.2360883473342
475.48051245031866
329.9656198130317
196.63976194148967
78.74983910808828
-21.256657501544368
-101.79772209916547
-162.18782346931135
-202.63032082613853
-224.16740555352993
-228.5856943180191
-218.2827101673104
-196.1038586885078
-165.16209944503865
-128.655495633078
-89.69547552019853
-51.15392342030549
-15.536070023475688
15.114414803208248
39.27457797638754
55.96593031253097
64.7460332701055
65.6717672726887
59.23890811386143
46.30377240415628
27.991846637074126
5.60003587909236
-19.496164539208664
-45.9210589685692
-72.36279183838319
-97.62823643390892
-120.68870363680469
-140.71182124280904
-157.0770690523422
-169.37569991941388
-177.3987469371075
-181.11849651597726
-180.66656493744887
-176.309122500585
-168.4194026109842
-157.4486390809336
-143.89826162266854
-128.2958820188286
-111.17155761446227
-93.02265640022367
-74.25206448945977
-55.06236321937291
-35.29647288648236
-14.24818708518098
9.495343286728009
38.10388210583299
74.39001926200343
121.51331199629313
182.5329447662097
259.8824543274589
354.86717847592695
467.28320543535165
595.2243792285233
735.1015394010481
881.8630117415577
1029.377494131139
1170.922811614303
1299.7181921259137
1409.4396079826925
1494.6679103938475
1551.2354320076863
1576.451885844736
1569.2030429811014
1529.927202811529
1460.4849489377004
1363.94810622259
1244.3412698737814
1106.3696686352134
955.1590730460427
796.0156792172024
634.2028098650318
474.73896522530333
322.2272094609774
180.71759438292094
53.59628432500523
-56.50356776202952
-147.76587510650114
-219.22281132919113
-270.75035990915364
-303.03037359897456
-317.47944996658873
-316.1435806161295
-301.56200858812497
-276.60900960626986
-244.32519151730713
-207.7522228681213
-169.78281377485712
-133.030196525218
-99.72048113710912
-71.61608883584137
-49.97425514168053
-35.537530698907716
-28.553377063238315
-28.819588047773635
-35.748221764012314
-48.440521034792454
-65.7693631961854
-86.46649134009047
-109.20865316118207
-132.69509671391222
-155.71137973309607
-177.17924050981975
-196.1924913578632
-212.03835892770232
-224.20644986301895
-232.3856543898938
-236.44961861111574
-236.43709398663833
-232.5312186137991
-225.03591029799804
-214.34805633526506
-200.9274959448173
-185.26889149320178
-167.8780538075177
-149.25117429718796
-129.85481744805125
-110.10262395595811
-90.31470281494421
-70.63814036262579
-50.9135722537702
-30.49700754682847
-8.085685354156084
18.372954155910428
51.61810219382954
94.82649814965151
151.19514296414135
223.42124741552456
313.17622180388304
420.6748174892824
544.4194564281161
681.1618634826079
826.0813739785898
973.144539444981
1115.5891277597157
1246.4669075191632
1359.183573617118
1447.9841446940136
1508.3410019791468
1537.2146757664702
1533.1791214828847
1496.4214223273968
1428.6323174120264
1332.8083986995605
1212.9943971348268
1073.9974363670285
921.1000256973002
759.7887993391143
595.5081098601299
433.44497276428865
278.3499966274494
134.39323712231396
5.0512800671992295
-106.97598774116472
-199.8200051151367
-272.4686296684681
-324.75837752132236
-357.3331597707663
-371.57077362820877
-369.4788453815934
-353.5644486293468
-326.68369295540765
-291.88025307964136
-252.22483629638032
-210.6659043643108
-169.8983885768565
-132.25551263691992
-99.6268305496034
-73.40476547476737
-54.46264975095592
-43.16524783683796
-39.40797488056886
-42.677890495943075
-52.13113012087853
-66.68112353981019
-85.08837712621462
-106.04485745849897
-128.24896901932044
-150.46740718332902
-171.58418279706268
-190.63994624395832
-206.86108980026168
-219.67392098745825
-228.70286254532942
-233.7580242998915
-234.81717309038075
-232.0043433092964
-225.56616084001575
-215.84679619790495
-203.2633586283916
-188.28354138855036
-171.40469525338625
-153.13059775294371
-133.94197578173075
-114.25452242987168
-94.35181164886453
-74.27733794498336
-53.68175913201814
-31.654363861557442
-6.600929970419315
23.762024566200985
62.24988338475867
111.88761166670518
175.46659966050933
255.05699939972513
351.5636008714702
464.40479209358693
591.3702467439687
728.678584026909
871.2215033716238
1012.952148860205
1147.3596812645974
1267.9737055535534
1368.8461750045344
1444.962177394531
1492.5482172115385
1509.2665987079433
1494.29442823106
1448.2926434194383
1373.2793374083647
1272.4310567535006
1149.8413105830136
1010.2627969535697
858.8532370554005
700.9387998962333
541.8014549062821
386.48860625285204
239.6403833152067
105.33306026734806
-13.057938019354623
-112.96948886114632
-192.72969987522308
-251.5962882016609
-289.74853868560456
-308.23260553155853
-308.86453092019417
-294.09775780504316
-266.86376658400394
-230.39646802433907
-188.04980948294553
-143.1157156088741
-98.654796132961
-57.355319129775665
-21.42667858795926
7.471665040654223
28.26205574193441
40.44247823916066
44.050212035333175
39.60057246839092
28.003750277240748
10.466407873252855
-11.612002945012922
-36.739523451162604
-63.4237819453661
-90.25148214991896
-115.9497515499324
-139.428998539281
-159.81327356426016
-176.4603208783517
-188.9666256657898
-197.15504713934175
-201.04807118528606
-200.8328431418947
-196.82253553765676
-189.40579637568877
-178.9645989578211
-165.7454225417058
-149.6872773784288
-130.2391190299565
-106.2246084985488
-75.8168903116945
-36.66718595356447
13.80627070561924
78.00495477780262
157.68326564836698
253.5182114928052
364.7989425872671
489.2892089112894
623.280442846006
761.8237854613035
899.1038849439702
1028.898433603047
1145.063704345312
1241.9938939586248
1315.0116989829596
1360.6581408868951
1376.8636036014118
1363.0007826902724
1319.833706322844
1249.3819919108753
1154.726383380722
1039.7833974758446
909.0686474973304
767.4617067192396
619.983171680527
471.59143006622526
326.99944048260545
190.50811803821273
65.85927817351717
-43.88518460578112
-136.43583297366246
-210.33937075376429
-265.0090682641715
-300.714264750771
-318.52502755581713
-320.21560541952147
-308.1316297956593
-285.02879326423846
-253.89747126881872
-217.78823422960272
-179.6500007932153
-142.18932930052821
-107.75573920193452
-78.25606201783921
-55.099818568257575
-39.17507360050223
-30.85247295990618
-30.015642565111236
-36.11585422457356
-48.24861309576585
-65.24746814289624
-85.78388491731548
-108.4614389365069
-131.9011732981598
-154.81994321644365
-176.09895406682963
-194.83451194652602
-210.3647310789222
-222.2719594731759
-230.36456879055763
-234.63920613903437
-235.21709594453066
-232.2412810717602
-225.7233565847817
-215.34985197264407
-200.29470568085307
-179.10542218482288
-149.72241504287862
-109.6628987494409
-56.36009367811178
12.393834603935417
97.98207297409553
200.5637987229918
318.81526548924467
449.85653037787415
589.373898954678
731.9111611740495
871.282367642308
1001.0551475303163
1115.0481170703672
1207.7860326692053
1274.86955088256
1313.2324104774248
1321.2749801842065
1298.8796283529562
1247.323305330508
1169.106538136546
1067.7239816628892
947.4085197567281
812.8769624366125
669.0917301487353
521.0436320209124
373.5568374353197
231.116535135434
97.72404684692754
-23.21659804061383
-128.98481377429977
-217.60851961435787
-287.9056964770549
-339.4952241734611
-372.77445878126184
-388.8623586824517
-389.5085188910283
-376.9757901409847
-353.9019644067873
-323.14193559992395
-287.60278114344015
-250.09182357953148
-213.18794525087065
-179.13565776712343
-149.7608535860112
-126.41228182694815
-109.93564262515906
-100.6836404609326
-98.5570066724807
-103.06416629995317
-113.39121752674671
-128.4829783386648
-147.13196476132026
-168.06456135960488
-190.0173852899996
-211.80246169301685
-232.36035974077774
-250.79958514728102
-266.4203952246575
-278.7226644507439
-287.3935225482605
-292.26136792664835
-293.20256913511537
-289.99874363721267
-282.1626841768249
-268.7767808542946
-248.405043993937
-219.1338329944661
-178.76642146085618
-125.15346986632093
-56.601463654213376
27.721617123665098
127.4650441252859
240.92062013063617
365.0223948800944
495.5121846174703
627.2370238862652
754.5360905089237
871.6731360118664
973.2666664604371
1054.6713396406863
1112.2765806290688
1143.703994764292
1147.896671249961
1125.1018042382452
1076.760274805011
1005.332978096819
914.0939637425274
806.9071928186371
688.0021661511744
561.7664639404584
432.56406411400917
304.57693126291247
181.66562487717601
67.24879877827459
-35.79722027898097
-125.21694253596232
-199.42839113173378
-257.54859635116924
-299.39394263217764
-325.453287870894
-336.8297453584808
-335.1543094894915
-322.4775870936675
-301.1425625104648
-273.6437359249177
-242.48397936646592
-210.04192970444507
-178.45909714400238
-149.5512631623217
-124.74742417700259
-105.05919943388363
-91.07899344923666
-83.0019073215388
-80.66861600688163
-83.623955152964
-91.18186909469232
-102.49043830028855
-116.59510589652182
-132.50116018318204
-149.23434559843494
-165.89168861060594
-181.6759495984249
-195.9156710846336
-208.0750462848194
-217.74939977642904
-224.63054888982137
-228.4248677602303
-228.72223473036394
-224.83942436240633
-215.68466602618298
-199.70081204334704
-174.93306136016352
-139.23583887598036
-90.59890732661134
-27.538195471778863
50.53125370243763
143.02043281467664
248.04015463253432
362.4406966857682
482.0039928377381
601.752001899889
716.329478578404
820.4184379693583
909.1343967811317
978.3615203580049
1025.0038147041055
1047.1394792828155
1044.0732948257696
1016.2978020053135
965.383544973877
893.8174012605257
804.8077994821183
702.0772965722546
589.6588685792082
471.7044995155321
352.3104913422609
235.36244215064715
124.40122876975971
22.51044391367239
-67.7761412471614
-144.5487080201116
-206.5726779448219
-253.30935624656442
-284.90250121883196
-302.1308523737217
-306.32960462218364
-299.28783399424174
-283.12772489689564
-260.1708351874805
-232.80176914041635
-203.3403509502922
-173.92915436989216
-146.44088465169165
-122.40795149182034
-102.97726236135921
-88.89353741892067
-80.50776166100083
-77.80442245566287
-80.44434936322646
-87.82049696475019
-99.1233356856961
-113.41101433033843
-129.67762289630394
-146.91505223479655
-164.16715320447514
-180.57526811076437
-195.41295378013055
-208.10723362021912
-218.24562112216293
-225.57245901075152
-229.97938695797794
-231.48786568410435
-230.2146003528083
-226.3069006898532
-219.8373413988801
-210.66468747369782
-198.2858427524772
-181.71676000715303
-159.45669576360538
-129.5831371896764
-89.98666503440424
-38.71335969368545
25.64834456416996
103.61300778857135
194.54635272475173
296.5619392738776
406.57708373365426
520.5125265078254
633.6038285578069
740.7779263976707
837.0440449194648
917.8588816582253
979.4372055737551
1018.9829696797973
1034.8256691723923
1026.462817900031
994.5181708121302
940.6306405587584
867.2950361601507
777.6753108149297
675.4053370006307
564.3891447283863
448.61438408979427
331.98939928336415
218.20255262345552
110.59751626857343
12.06313132724739
-75.0580247241235
-149.0367877494336
-208.7975252905116
-253.9288198588716
-284.66080695929986
-301.8094705583866
-306.69577806658253
-301.04893028706306
-286.89668885560536
-266.44438856396886
-241.94878619989714
-215.59452769350577
-189.38359750256325
-165.04836643062703
-143.99193886954896
-127.25421381005268
-115.50096548476557
-109.03265891022355
-107.81025337085883
-111.49633944772518
-119.50944707718448
-131.08653047483216
-145.34660095198802
-161.35191599269686
-178.16576778348514
-194.90262191237622
-210.76570800256567
-225.07166604205543
-237.2650331709969
-246.92461823077844
-253.76305339268433
-257.62246105307327
-258.46833994975
-256.3804044987761
-251.53846377539344
-244.2030179352966
-234.693152395844
-223.36641167212395
-210.6013988024267
-196.77976722096003
-182.26632532622676
-167.3846856598025
-152.3782216609531
-137.34204785621415
-122.11819884357433
-106.16539467031626
-88.44176134047571
-67.35728137250554
-40.845402913626685
-6.570795469946191
37.75000671660033
93.97030702660402
163.14804477637674
245.26184489411085
339.05799328560863
442.0517814468618
550.6786824316721
660.5640671375011
766.8683558901896
864.6667444848719
949.3236226301681
1016.8239687853624
1064.0313519405213
1088.8547422458819
1090.3226580301618
1068.5733314489084
1024.77341714279
960.9813024678438
879.9748503947144
785.0651734174888
679.9121460939889
568.3490287664754
454.21979260933347
341.22944200091615
232.80753197784543
131.9882950448506
41.31082839423843
-37.258641591239055
-102.38107526528233
-153.37301694110428
-190.203713183932
-213.45822556496415
-224.27108270173878
-224.23618051066242
-215.29624371546745
-199.61654111789966
-179.45163011952462
-157.01739258564234
-134.3774557197195
-113.34785900143365
-95.42485214554662
-81.73942747169045
-73.03649019175386
-69.67640817904055
-71.65920671496811
-78.66856514455871
-90.1279558018603
-105.2626034274314
-123.16442350682276
-142.85656563420721
-163.35325439123045
-183.7117812628214
-203.07496954947808
-220.7033327010372
-235.99657076861303
-248.50454837481857
-257.9293959499473
-264.12090652777465
-267.0647955083499
-266.8641949335822
-263.7198174062435
-257.91252885182746
-249.78558081973563
-239.7239649257957
-228.13158634329423
-215.40299296363037
-201.87746025100788
-187.761376006103
-173.0166750290936
-157.231836957434
-139.50991195112172
-118.41935651843428
-92.04861565262362
-58.18394455785473
-14.60005266504696
40.57931789981663
108.51856147726365
189.376386322417
282.132646749351
384.5590384494536
493.3326884299122
604.2724745073044
712.6628385268282
813.6206633530865
902.4613503505497
975.0295377352685
1027.9693034560885
1058.9151242322123
1066.5925144572536
1050.8296534552906
1012.4939444597428
953.3726748130211
876.0167198669744
783.5652363465734
679.5642704911592
567.7874445060671
452.0686553045506
336.15360698881693
223.56781080706054
117.49704536584005
20.681938887015633
-64.66836928173045
-136.94025241490795
-195.15608630926982
-238.98962771087216
-268.7517500956925
-285.3408188525189
-290.15964738622733
-285.00910352807114
-271.9668729943126
-253.2583228796925
-231.12858866776418
-207.72332750544916
-184.98411620591517
-164.56565547509547
-147.77782360627475
-135.55134427176037
-128.42777223560057
-126.5739343128769
-129.81903496311668
-137.70956623618048
-149.57216213768461
-164.57804709666138
-181.80649043505798
-200.30291465223078
-219.12968634492796
-237.41050961989737
-254.3672050583728
-269.34369700012695
-281.81517903721715
-291.39079363506113
-297.8166658732165
-300.97405129483104
-300.8688742554879
-297.6173649606177
-291.43060052430116
-282.5985896655362
-271.47421121692116
-258.45342428384595
-243.95144802806345
-228.38109132025488
-212.1343534996975
-195.55769578187272
-178.9058740237183
-162.26050382547425
-145.40892214051865
-127.70214209966886
-107.939844348967
-84.33934288631146
-54.629352449173695
-16.28329359509455
33.12867270162167
95.5279789278014
171.93539196902606
262.1736507931962
364.71814206806346
476.7152704122074
594.1580653897735
712.187423077063
825.4739244357913
928.632243121737
1016.6255843504674
1085.1243309061422
1130.788484181527
1151.4513178961404
1146.1977529981405
1115.346551918503
1060.3508820155002
983.637787064433
888.4134041919735
778.4548934569832
657.9007551343666
531.0491593645149
402.1718433304869
275.3467539198325
154.31190520730127
42.342998144845694
-57.84482884091753
-144.1708507294146
-215.23753772081392
-270.35420318625677
-309.53212508111693
-333.4455537593287
-343.3597360064783
-341.03369217488563
-328.60308778066275
-308.4467553995612
-283.04607241710494
-254.8499917618892
-226.15457987340756
-199.00115783673584
-175.09679124260072
-155.76078869603276
-141.89731316996134
-133.99251040235495
-132.1352640803361
-136.05730730327667
-145.18643410349247
-158.71146699490842
-175.6574377536698
-194.96168847923136
-215.54113862313994
-236.34838638078932
-256.41916042566066
-274.9119933808345
-291.1358232636059
-304.5614258623241
-314.8204483294919
-321.6999631723405
-325.13329691899224
-325.18168220161533
-322.008779134378
-315.8574187487901
-307.03059332567614
-295.87309845855435
-282.75606558314155
-268.0659044451303
-252.19263666590746
-235.51607273106015
-218.39264253220998
-201.14111652038363
-184.0189707542579
-167.175559086224
-150.56772530454128
-133.83711986285215
-116.17217328991975
-96.201311466309
-71.97709586578762
-41.096608005067964
-0.9659385712469089
50.82284452252801
116.06815167338036
195.5733468198497
288.8736716774038
394.11926094755563
508.12626705602366
626.583022315202
744.3774155225398
855.9993343571782
955.9701186163911
1039.2537091540157
1101.6110232966034
1139.8694515245293
1152.0908800543607
1137.6353215161546
1097.1280323234898
1032.3446026569302
946.0363931436984
841.7227900249861
723.470616812301
595.6730835649714
462.83943305566993
329.4048746048952
199.56455129631058
77.1320649019982
-34.577430584761686
-132.8411602202811
-215.60321807290848
-281.53010773746183
-330.03930081259136
-361.29254461404247
-376.1549769930317
-376.12299006768
-363.2201644256963
-339.86585251096426
-308.7291855683554
-272.57962690699037
-234.13992966947563
-195.94902930735407
-160.24713482876138
-128.89175986135297
-103.30246722915007
-84.43074033621451
-72.75702221995085
-68.31382940685045
-70.73048855432161
-79.29705072433968
-93.04331769302911
-110.82452469370423
-131.40361901796467
-153.52370202688493
-175.97143714853215
-197.63411964117992
-217.5466815011164
-234.92256438364728
-249.16832869043415
-259.8849554627227
-266.8577347879204
-270.0376034147868
-269.5186306773244
-265.516151908447
-258.3461266837625
-248.4019860064043
-236.12831960107695
-221.9967389832743
-206.48657324886233
-190.06469202327725
-173.1538109143157
-156.07718220060406
-138.96733756327862
-121.63405853718561
-103.4120912989317
-83.04157443306066
-58.64567876252319
-27.850277343207267
11.948574088881301
63.20576086444869
127.80326111300748
206.65794832226968
299.43079315993486
404.38693588694167
518.4268350379549
637.278457231801
755.8178191046869
868.473501741316
969.6659958897197
1054.2327798064487
1117.797008076207
1157.0490754791613
1169.9236047798531
1155.6710354809181
1114.834977351005
1049.147367588676
961.3567201536796
855.014451100883
734.2454073043499
603.5221676443564
467.4550292120192
330.60089783176375
197.29279355142745
71.49415257846658
-43.32277565497108
-144.28048978557257
-229.18416190745367
-296.58821493266976
-345.8315221606323
-377.034347633692
-391.058015733959
-389.4317464988136
-374.24961833264194
-348.0405550319981
-313.61534476543073
-273.90129411174655
-231.78263127943745
-189.9585729526038
-150.82245861135178
-116.36755034821041
-88.12412640049425
-67.12580331135365
-53.90469439877515
-48.517786642542745
-50.59883996355429
-59.42469323221684
-73.99132654113211
-93.09884639336386
-115.43758554273509
-139.66592597340534
-164.48026702997828
-188.67824082138927
-211.20856057590436
-231.20333584286354
-247.99425562527932
-261.1145724549831
-270.2913572384852
-275.43319647954263
-276.61392792737695
-274.0514596421515
-268.08182000564204
-259.1298356087966
-247.67922167386018
-234.24037347140364
-219.30683290972874
-203.28920274443314
-186.4158976780229
-168.59617406504788
-149.2625320545254
-127.23952396588498
-100.7025394394771
-67.27991306359972
-24.314064565595714
30.750225546640124
99.91747291790699
184.21651046542377
283.37751215189206
395.6660275625387
517.8991578222531
645.6376921927242
773.5187417501716
895.6786657527329
1006.2141850276987
1099.6297893313006
1171.2266491309767
1217.4034008336946
1235.8532787956044
1225.6522109298005
1187.2408041150954
1122.3144752911448
1033.6463597599811
924.8684596627347
800.233276812734
664.3751737873774
522.0850119838442
378.10696131789405
236.96323863444604
102.80644787523397
-20.704963695056847
-130.51212368481066
-224.24295560123963
-300.2759101796231
-357.7739123672386
-396.6876046098058
-417.726107928961
-422.29009130332787
-412.3672193338526
-390.3983938142347
-359.1274884068466
-321.447781326875
-280.25347594095484
-238.30129089025525
-198.08962511427637
-161.7602376257483
-131.02099162772905
-107.09310474314259
-90.69322090655095
-82.05067842991447
-80.95044448844314
-86.79622016907629
-98.68859592693974
-115.50959097281006
-136.0076118707475
-158.87886332829774
-182.840057733343
-206.68875104920173
-229.35057440478695
-249.91240530180576
-267.6409390532044
-281.9899381509836
-292.6004378413767
-299.29433182630186
-302.059383841897
-301.0260321242287
-296.4394812658029
-288.6320334944663
-277.99945498654995
-264.98130691838963
-250.04241447070189
-233.6543168518083
-216.27827095182977
-198.34737873248866
-180.23559734836883
-162.19495477049225
-144.2464193451685
-126.02779348811578
-106.63076086377816
-84.48729460914262
-57.37312065759231
-22.570819754988136
22.809400759042262
81.39660292938777
155.09054516892567
244.64634941166122
349.38836588194954
467.09778835927204
594.0850454518463
725.431707729482
855.3647117846014
977.7125420595038
1086.3887613874244
1175.8482540564607
1241.4729739843606
1279.8605683812546
1289.0006367007136
1268.3355911257086
1218.7147883769012
1142.2589559745923
1042.1594707740007
922.4393233194246
787.698866729052
642.8655896846642
492.96206896753904
342.8993933481556
197.29881890658868
60.34109893325052
-64.35847390117414
-173.85086505395327
-265.929756155561
-339.17990221408365
-392.9953719304732
-427.56853343282455
-443.8477555008618
-443.46190599364803
-428.6139645343774
-401.9484967927587
-366.3998566458456
-325.03073180503054
-280.87081642987636
-236.76468220875824
-195.24099067517028
-158.41457697493715
-127.92332774576437
-104.89555619306341
-89.94560442376805
-83.19745399267656
-84.33409833474069
-92.66516312901737
-107.2039181056293
-126.75015265190349
-149.97625110675125
-175.50920426078176
-202.00298925452717
-228.200432661122
-252.98293603403292
-275.40594786337704
-294.7208750122002
-310.3853096564016
-322.06225073286674
-329.60713947681177
-333.0430651603172
-332.5299102966928
-328.3337792064959
-320.8006511595295
-310.3373217739451
-297.3960781006492
-282.4562190285709
-266.0036177876087
-248.51177138589634
-230.42328698904169
-212.1313552550233
-193.95775593321542
-176.11091011428914
-158.60094722447204
-141.10455647179276
-122.80275041939146
-102.24453073735512
-77.30592853723856
-45.30181338808538
-3.2665147252666173
51.63235759844176
121.61962256546872
207.8628441230362
310.1284150272186
426.60546019713286
553.9240001353951
687.3583639000283
821.1822515760649
949.1240134874216
1064.8618917797858
1162.5029593785137
1237.001517078545
1284.4854668506675
1302.4699794358958
1289.9508897984958
1247.3847735129243
1176.5733269187945
1080.477722796185
962.9901493349978
828.6841568887296
682.5614093992622
529.8096677600894
375.58180845713014
224.79913829382372
81.97888502029247
-48.912389078768314
-164.57676537042875
-262.47489875670294
-340.8912989162128
-398.97466637795566
-436.74676714159415
-455.07257014595433
-455.58781317602467
-440.58609074837705
-412.8729947003442
-375.5955408480259
-332.05814504564455
-285.5424137082116
-239.14350524031704
-195.62758079704417
-157.31631391677425
-126.00601240011369
-102.9250676751366
-88.72817579481007
-83.52277272224474
-86.92369196500206
-98.13028488461508
-116.0171091515167
-139.22892406596847
-166.2738480504523
-195.61282022526493
-225.7428167611276
-255.26837418098702
-282.95679946699795
-307.7764209200393
-328.92050488898167
-345.8181807206729
-358.1313916128351
-365.7390664994542
-368.71289456957874
-367.2886181819245
-361.8351142092977
-352.82256253111984
-340.789775217395
-326.3119699164718
-309.97202850374714
-292.3310306037963
-273.8814562351574
-254.96366012436164
-235.63470023079213
-215.49907197770196
-193.54468148067065
-168.05180155090446
-136.63671187475484
-96.4620645749508
-44.603798898610194
21.480658766272384
103.4684911352914
201.7625441237016
315.2314587923598
441.14188983859447
575.28810283117
712.2899683843414
846.0105374490201
970.0391168617895
1078.184788902746
1164.9309674923784
1225.813710220163
1257.6948800055873
1258.9130445011247
1229.313566317077
1170.1718116505879
1084.0298752677882
974.4726529572422
845.8710071525143
703.1175274962521
551.3740646029969
395.8422813847492
241.56185629171978
93.23654153075864
-44.91298130767575
-169.27202396076314
-276.9342148607821
-365.78279480279843
-434.54490416095706
-482.8122857213581
-511.0266399331095
-520.4287824057508
-512.9682229327573
-491.17486142118696
-458.00190160216505
-416.6529996464703
-370.40728792622394
-322.4519870453628
-275.73077369315234
-232.81570648532352
-195.8080065266489
-166.27348462043503
-145.21641328944378
-133.0885077786773
-129.82547277638176
-134.90528539980812
-147.4247374392926
-166.18767685071163
-189.7958209632284
-216.7378992041872
-245.4774715423336
-274.53626824953596
-302.5650207366475
-328.3947945773269
-351.0677308397166
-369.8534608680288
-384.25582320667115
-394.00661316660376
-399.0464274444382
-399.49869920490977
-395.6399620859567
-387.8680055764806
-376.670731130597
-362.59691151316525
-346.2284014326546
-328.15329596435276
-308.93948115273764
-289.10130359834
-269.0409942652716
-248.94391166866404
-228.62239278395094
-207.335944399861
-183.64663472270044
-155.3799793314596
-119.74562804858144
-73.6320280751674
-14.043470744444562
61.39124808708578
153.93289786825267
263.359428274992
387.77143810141285
523.6041122953918
665.8389660961881
808.3793573987622
944.535090257312
1067.5534480693545
1171.1360949156078
1249.8933212234497
1299.6994209220022
1317.9253718457417
1303.54228768006
1257.1021085930718
1180.6105413534185
1077.3171682439165
951.4535634855188
807.9493961191915
652.1518723578441
489.5657353584927
325.6219831685962
165.47816716313923
13.848881633399799
-125.13844794519613
-248.0645769822728
-352.31273054784987
-436.13239313839006
-498.6715399659641
-539.9755899195329
-560.9497060733889
-563.2817704308471
-549.3260662358942
-521.952744770762
-484.3735563769759
-439.9572943950524
-392.05047149938787
-343.81616520344073
-298.0953660949339
-257.2931946027491
-223.2961609326934
-197.42458339623533
-180.42061924987564
-172.4719209510934
-173.2668309413024
-182.07027646543332
-197.8096700824277
-219.165229878245
-244.66250462123207
-272.76383037902394
-301.95261744957963
-330.8061451386411
-358.0547676049063
-382.62491768760617
-403.6645810426075
-420.55193183782694
-432.891227304734
-440.5026899467701
-443.407557205819
-441.80344436509773
-436.0295773591703
-426.5294135351984
-413.8178208473679
-398.45326845629296
-381.0127256300543
-362.0692319414701
-342.17171525770226
-321.820495352829
-301.42382984449176
-281.2165052887869
-261.1274817074813
-240.60531547449892
-218.44496468809564
-192.68887464749236
-160.67409425593166
-119.2623754683732
-65.23996253717686
4.173099502280195
90.7951133631158
195.03642882064273
315.6198043732817
449.5140060268658
592.0817069896335
737.4108425599451
878.7804939778631
1009.1996825189514
1121.9546025322234
1211.1095915113842
1271.916876020507
1301.102131771198
1297.0154708256298
1259.6545226389992
1190.572729134245
1092.6932399957336
970.0572522438638
827.5399201533735
670.5619601994563
504.8149492303264
336.0099423790174
169.6525795390636
10.846453392057072
-135.87207985228184
-266.66721819743697
-378.5083807903495
-469.2494881951976
-537.6812686993158
-583.547769816689
-607.5204899546188
-611.1323057412237
-596.673201980145
-567.0478708742603
-525.6011728457739
-475.9240606659374
-421.6566680448093
-366.30321403720876
-313.06681864611005
-264.7125230838812
-223.46531413389323
-190.94378920853768
-168.13268761221792
-155.39674284454307
-152.5285059738062
-158.82131786348867
-173.16240307959276
-194.1396100909354
-220.15108605778994
-249.50770845952553
-280.52487790793975
-311.60337002664187
-341.29697969827924
-368.36384758021893
-391.799254120621
-410.85114051320755
-425.02231230576484
-434.0617635116229
-437.94639122119133
-436.85492861159076
-431.1355238448699
-421.26848863533144
-407.827600237127
-391.4447721130681
-372.7806897625879
-352.4985734925919
-331.23513245060093
-309.5600804546131
-287.9072248162
-266.4565385268229
-244.9642773513599
-222.57318116368043
-197.66894492007927
-167.8641725460782
-130.16742409809825
-81.33904917283581
-18.382667057432286
60.913171382554715
157.48579008265082
270.6551374892119
397.9836630748522
535.3541584652774
677.2486051063089
817.1834802145044
948.2361657691619
1063.596743747467
1157.0887343665124
1223.6101876007858
1259.4600174722332
1262.5321517962798
1232.374991013607
1170.128025172578
1078.3598400672424
960.8357147084203
822.243791361471
667.9084552459772
503.5117921216347
334.8342520236919
167.52048431086814
6.873627200287956
-142.32190802134895
-275.95225340180775
-390.7015858601177
-484.15281283718684
-554.858219208214
-602.3724773388171
-627.2381538888696
-630.9216484370061
-615.7047810150915
-584.5382575485396
-540.8636856541019
-488.4147770964479
-431.01074374065536
-372.35296730157444
-315.8392051572879
-264.41271151558453
-220.45509873642703
-185.72015771721215
-161.30345628445804
-147.6476119036064
-144.58313567034202
-151.3985761353933
-166.93292484897947
-189.68493271410034
-217.93108997288104
-249.84187270181795
-283.5879785022254
-317.4324624122532
-349.80657050010467
-379.365715191646
-405.0239186171411
-425.97011580492165
-441.6698549961827
-451.85298640837067
-456.49131473400934
-455.7743393690453
-450.0845888260831
-439.96522091985344
-426.0758822895213
-409.1435020737476
-389.91576184118554
-369.1136001988908
-347.3666598407293
-325.10943391776595
-302.4241330426246
-278.8452730076625
-253.17919912373446
-223.41542028037026
-186.8005579084199
-140.10859483398428
-80.08540244088067
-3.9960589578457473
89.82515722337585
201.5277153481191
329.48432250159226
470.25741235350915
618.7892341028451
768.7788551389382
913.1875513514749
1044.806554210128
1156.824406210594
1243.3369645684168
1299.752699284037
1323.0639700957522
1311.9765252358184
1266.904181442834
1189.8432307861844
1084.1509575018188
954.263309550016
805.3869565525231
643.1920759919063
473.5244029980149
302.15007113660374
134.53957975172614
-24.312458217990525
-170.0385684832928
-299.0222384092425
-408.491873798161
-496.58393971107097
-562.3756265094398
-605.885345210914
-628.0364409219349
-630.5786151202383
-615.9665672613957
-587.2044567367072
-547.6677083533577
-500.91167719301404
-450.48008228028584
-399.72847283731534
-351.67071617946783
-308.8523572735423
-273.25939561208287
-246.26910652048286
-228.64078408304164
-220.54151228869424
-221.6021813719224
-230.99627911190726
-247.53316786211772
-269.76125630778665
-296.07704796716814
-324.8305315292695
-354.4170817967956
-383.35204233020704
-410.3271886523384
-434.2499222091694
-454.26838789999067
-469.78318328778516
-480.4422659075742
-486.12051585568054
-486.8916023185474
-482.9970726314948
-474.81377336371565
-462.8200621203635
-447.56241087681633
-429.62498139654036
-409.6017175204232
-388.07119265570424
-365.5798760040344
-342.63560840501725
-319.7048754228
-297.2074574734488
-275.5059351723292
-254.88703765269304
-235.52262481707328
-217.38740407235042
-200.11652326719351
-182.81784946176512
-163.8968088101515
-140.97749708155678
-110.99199686405416
-70.46550594192007
-15.971096024381495
55.31928066229776
145.09038145613673
253.44888391813663
378.67640520654345
517.2098814392166
663.8463457980802
812.1354775688989
954.9018884877239
1084.8280696713582
1195.0295714114618
1279.56406439142
1333.8318752354135
1354.8436791554145
1341.3458994550367
1293.807133665395
1214.2840289382787
1106.19607569403
974.040017036778
823.0745538161207
659.0068162215285
487.7045679429949
314.94429118986807
146.19523067333927
-13.563252217212607
-159.99277573011773
-289.51677677044336
-399.4118944832977
-487.870570929504
-554.0338556613023
-597.9880084589824
-620.7193098774466
-624.0287014775225
-610.4087044896336
-582.8856736447495
-544.8376994546518
-499.80240718038567
-451.28805673444504
-402.59985637136487
-356.6891333640098
-316.03077657872956
-282.537413656649
-257.516634454069
-241.66964416315562
-235.1245118924142
-237.4948193134071
-247.9559177873542
-265.3340421432991
-288.2043789655654
-314.9949251530708
-344.0899429102909
-373.9219292656013
-403.04565026998284
-430.1954518185533
-454.3259880237789
-474.63419723412574
-490.5632665754665
-501.7919169108099
-508.2122367939328
-509.9008191344243
-507.0890675077575
-500.1342597440022
-489.4893214326343
-475.67063259729997
-459.2271665193511
-440.71686225287743
-420.6917466726001
-399.68710410426615
-378.2097412615201
-356.723997540071
-335.6367369756054
-315.27838031685025
-295.86782428941103
-277.44143593721594
-259.72795061355924
-241.97562495997573
-222.7794126331246
-199.9843482614966
-170.73672163520447
-131.71958848833887
-79.55945534252979
-11.344350419503797
74.83903104476681
179.45269637542364
301.2249058582935
437.0821559769735
582.2979287032813
730.8305352788425
875.7996242329999
1010.0377351745944
1126.6532744899553
1219.5466835129046
1283.8311635348657
1316.1273312581893
1314.7199002178904
1279.5785371012262
1212.2590601965455
1115.710142780074
994.0133042305351
852.0893068202611
695.4038447983274
529.6911079060412
360.7009133460124
193.97438123885593
34.65077483133996
-112.6991786095163
-244.2160870227067
-356.86847301950843
-448.54082609459266
-518.0876065678256
-565.3462848531169
-591.107316950685
-597.0402662824597
-585.5744658125985
-559.7377616682863
-522.9652639344971
-478.8953735473465
-431.16795169486363
-383.234530092061
-338.19135803531736
-298.64525389030456
-266.61820871936106
-243.49627919014853
-230.02297704279317
-226.32939401878744
-231.99423942452486
-246.1280075585696
-267.47336580343796
-294.5136553635025
-325.5807464676159
-358.9560898599499
-392.96202899547563
-426.03996606540085
-456.8139599226547
-484.1388758653041
-507.13032874849785
-525.1763196945819
-537.9329291896368
-545.306833095215
-547.4284633155131
-544.6178572906766
-537.3438128114615
-526.1821667012879
-511.78088418192635
-494.83068502654305
-476.0352493987741
-456.07979021882574
-435.5954155994044
-415.10419079910645
-394.9220225187024
-375.0096456219285
-354.7911353148194
-332.98945513047096
-307.5478293765905
-275.70088747953594
-234.22581420981186
-179.85551885945722
-109.79188503621884
-22.22851525125668
83.21360425561019
205.21695334433286
340.7109061787062
485.0315378083548
632.2633725611322
775.7077008866675
908.4167390666487
1023.7339805746917
1115.787079776327
1179.8904558667691
1212.8265669203843
1212.9898104149286
1180.395650142944
1116.5738473765648
1024.375548750809
907.7249460038367
771.3412031456268
620.4553539064673
460.5440412703804
297.0913279284782
135.3805650807841
-19.684294255884936
-163.73108331768276
-293.05076410367883
-404.7081834447404
-496.62817742278247
-567.6522214356382
-617.5568582841372
-647.0258419524849
-657.5762170402528
-651.4419605744774
-631.4192478745925
-600.6834040296344
-562.594950387981
-520.5114485287259
-477.61494959572747
-436.76374819328703
-400.37796559581517
-370.36043672644587
-348.0492095696312
-334.2032180465072
-329.0231420859066
-332.201708256392
-342.9946484485426
-360.30698802955897
-382.79089196580475
-408.9490127338821
-437.2348687884536
-466.1418916156063
-494.2758738526747
-520.4093354007769
-543.5184921227733
-562.8045082259029
-577.7009551184202
-587.8688393257567
-593.1804696807641
-593.6954449624102
-589.6349544117445
-581.357692564864
-569.3330509426869
-554.1096179239922
-536.2864655188318
-516.4905342441917
-495.3538351277424
-473.48746385176844
-451.45414242889007
-429.7365510859616
-408.689709644335
-388.45764435956966
-368.838506472665
-349.10915582015906
-327.8606391451754
-302.9205201765515
-271.42760646813986
-230.08708833255378
-175.58820552123558
-105.12315319747367
-16.91362159439643
89.35521258890537
212.27146319758032
348.64635752444065
493.6817822102571
641.324911105369
784.7534646565321
916.9260660151381
1031.1341870844735
1121.4997246678508
1183.3759500100764
1213.6239734056671
1210.7495483581315
1174.9027611884217
1107.7615825489768
1012.3276010189948
892.6632887697326
753.6014505075087
600.4543930004805
438.74250536574175
273.95192857464997
111.3222701703117
-44.33550938447266
-188.78850007613943
-318.50016775330994
-430.7225602311423
-523.5615948186564
-596.0095238634403
-647.941166503566
-680.0729689581418
-693.8837597410801
-691.5009360621838
-675.5616737511778
-649.0561346925911
-615.1574745919899
-577.0484684137499
-537.7582509164471
-500.0215576568421
-466.16741647712615
-438.0384785083857
-416.9430218567693
-403.6425133004619
-398.3719566235286
-400.88631273446407
-410.5279821619387
-426.31076368586884
-447.0130208168469
-471.2711085263522
-497.665569280972
-524.7974881741663
-551.3557304680842
-576.1725583016989
-598.2626291550586
-616.845661539662
-631.3563386453374
-641.4425618339662
-646.9536341280332
-647.9196033773364
-644.5215133517361
-637.0579538060555
-625.915526706575
-611.5438244452504
-594.4336609137292
-575.0984581781996
-554.0572710959533
-531.820582370296
-508.8803560432093
-485.70137033899607
-462.70960395348834
-440.27434036570895
-418.67798572468314
-398.0608447374097
-378.3244393577419
-358.98667979862813
-339.01181039651686
-316.67530777716024
-289.53953692210894
-254.59563971413013
-208.58331336026623
-148.45236804190012
-71.88744922079911
22.206812022356928
133.35265065778734
259.3380486168351
396.27185739532
538.8427091472252
680.736964605143
815.1515230347427
935.3367686256964
1035.1140704198535
1109.3186627075304
1154.1305980594861
1167.2758292519472
1148.0944202003643
1097.4842806275135
1017.7427687822185
912.3379558651889
785.6405384170934
642.643021709455
488.68774045174985
329.2165474468384
169.54672860305124
14.67618719401662
-130.87913048349208
-263.2190105906472
-379.17162880507374
-476.38537324773154
-553.3914783229602
-609.629852506732
-645.4347843513457
-661.9804895875155
-661.1892732343568
-645.6044990011363
-618.231104140201
-582.3537614629405
-541.3486915439554
-498.5025639459793
-456.84753044312674
-419.02087062156806
-387.15751798989345
-362.8214949674884
-346.97851261728897
-340.00772126719863
-341.74606383706646
-351.55639251288784
-368.41364031611926
-391.0037825581081
-417.8262957210126
-447.29294974713474
-477.8204485433248
-507.91197688993515
-536.221785311333
-561.603219413393
-583.1411380930641
-600.1674219120084
-612.2621085611111
-619.2433350790972
-621.1480495931173
-618.2068937332064
-610.8139658509893
-599.4904028964684
-584.8456960752844
-567.5419488873538
-548.2599151826714
-527.6621539126824
-506.34695682370034
-484.7785533298536
-463.17596905840827
-441.35792945263285
-418.57155444807927
-393.36394601435643
-363.5658553310082
-326.4370048210003
-278.98015424139066
-218.3824572564664
-142.50934590918877
-50.361389334947916
57.59180948066674
179.260166391818
310.9840191172041
447.77114828024776
583.6807694972133
712.3017968648759
827.2641420066311
922.7258009796053
993.7911802455185
1036.8281586474668
1049.6654674157653
1031.6646649569775
983.6726518314781
907.8746055071297
807.574511441121
686.9338517926135
550.7009036770881
403.95370659181606
251.86553298680008
99.49463537560649
-48.40035639561606
-187.51696142128267
-314.1368786273613
-425.2288742219619
-518.5305598737913
-592.6074907884215
-646.881569492872
-681.622976178335
-697.9031282494892
-697.5060520959927
-682.8026437273271
-656.5997051062366
-621.9735491170861
-582.0955032876539
-540.0594947957502
-498.72389746711326
-460.5784268520656
-427.6450087161086
-401.4182670011999
-382.8443360638005
-372.3308870476296
-369.7827614308917
-374.65954982356595
-386.04953460567737
-402.7554069114233
-423.3878498573246
-446.4618816714562
-470.49198148976666
-494.07931665703404
-515.9807899835903
-535.1562000723269
-550.797776644756
-562.3444052647151
-569.4791720534615
-572.1121536846794
-570.3542486220796
-564.48657436177
-554.9282711173494
-542.2037061672133
-526.9081213966596
-509.67318884730673
-491.1353843351827
-471.907061318989
-452.5494887314183
-433.54916487801836
-415.29610673561785
-398.05439351689256
-381.90629967906665
-366.65158782027834
-351.66275709799214
-335.7295687675511
-316.9547120932627
-292.7696953005939
-260.1149112630123
-215.78147613986658
-156.86830176190244
-81.27773288373365
11.839119402689192
121.7683794387291
246.10578545899847
380.83400510326686
520.5887035377675
659.0709420388871
789.548495554201
905.3861098701694
1000.5490810190801
1070.03262854396
1110.1817748440462
1118.8822231468341
1095.6204285333736
1041.4250156377866
958.7092534900871
851.0396598871553
722.8608023389093
579.2058283993356
425.41543684509054
266.8804992855794
108.81641702750198
-43.92745282072838
-187.0227034961772
-316.7851385008605
-430.271098141396
-525.3465518963446
-600.7258250939451
-655.9769954242337
-691.4919275189596
-708.421786061007
-708.5816798856127
-694.3287381020457
-668.4184619543581
-633.8455864418057
-593.6791700322076
-550.9052679171294
-508.2874872143003
-468.2508107185512
-432.7942668368814
-403.43587185614706
-381.188283800732
-366.56240697454103
-359.5969785745222
-359.9114175954461
-366.77539346639554
-379.1870898728165
-395.9569121245113
-415.79437237289204
-437.3900951570359
-459.48497435325555
-480.9253864685189
-500.70506500776725
-517.9926864130784
-532.1458293505273
-542.7133974121647
-549.4297767588411
-552.2033435369523
-551.0989500900123
-546.3155500071072
-538.162704286381
-527.0381534913847
-513.4059121917339
-497.7723764996741
-480.6594700246484
-462.5773424715366
-443.99933902254264
-425.3373852971192
-406.90388866835474
-388.8360433716369
-370.9689730803978
-352.6729878422284
-332.70164537968293
-309.1176886345428
-279.3583141873938
-240.4680293839432
-189.48306044777473
-123.9103099233156
-42.21403894735849
55.785158711769995
168.67445883490754
293.41167602255314
425.4845778281586
559.2373536876302
688.3156907176524
806.1719449300348
906.5748668070696
984.0749830494312
1034.3814859184404
1054.6202331355391
1043.4627785531532
1001.1331536002015
929.310092881082
830.9457840818715
710.0251228396365
571.2937418533481
419.97974653584424
261.5262018963349
101.34802293056248
-55.37653120043586
-203.88007198387788
-339.95438690708477
-460.076953488805
-561.5121445223095
-642.3831078797703
-701.7132374145708
-739.4359429811308
-756.3678430183509
-754.1404505066744
-735.0920740132389
-702.1262657016574
-658.542910599261
-607.8495520423496
-553.5667748389076
-499.04616650229775
-447.3134345296371
-400.94128753783394
-361.9572909289022
-331.7907466824333
-311.2570669728753
-300.57716549594113
-299.4286207084837
-307.0214848017432
-322.19070950590367
-343.4990505566327
-369.3444312945244
-398.06347667066274
-428.0229464279335
-457.6948863028866
-485.7163518212113
-510.93692135918764
-532.4518065127749
-549.6147379505337
-562.0337787944441
-569.5584534064011
-572.2598391727306
-570.4007255328783
-564.3939825125921
-554.7468452463517
-541.9819808911668
-526.5173518499499
-508.4952851176381
-487.5837209109766
-462.8072732804585
-432.4809372601928
-394.30484833530977
-345.6354901051646
-283.8984124908571
-207.07046535533374
-114.14263072805238
-5.478982494443557
116.99017767098854
249.76991805464147
387.99330139634117
525.7754051921673
656.6790270253359
774.2301914883975
872.4225000712496
946.1597785205846
991.5970876504555
1006.3540631909008
989.5966115147573
942.0022183046681
865.6308385030451
763.7233927894215
640.4520412218959
500.6478149091239
349.52767063082774
192.43971867730386
34.639573100196
-118.90050380059581
-263.6540377054585
-395.6762633260241
-511.71233025907605
-609.277867288805
-686.7142427380873
-743.2192286975624
-778.8493836516482
-794.4875809601771
-791.7720092303115
-772.9886407790724
-740.9330634284773
-698.7514366610516
-649.7707895022849
-597.325046483003
-544.5855825157106
-494.4113564785765
-449.23035247925884
-410.95600713342594
-380.93945033445726
-359.95660666832595
-348.22681038235737
-345.45998765101643
-350.9280901071569
-363.5516418281181
-381.9933161728393
-404.75567616417635
-430.2781750434817
-457.02512576013896
-483.5601502624268
-508.60680695622455
-531.0946718873104
-550.1878456029468
-565.2937519305801
-576.0556599739085
-582.3365744557501
-584.198690925672
-581.8730700081456
-575.7070591287294
-566.0747441982031
-553.2372670781448
-537.1543042582414
-517.2782246254759
-492.39324545046566
-460.57389486922136
-419.31637794290623
-365.85045237996826
-297.5910256794127
-212.6489063555789
-110.29978286350632
8.677749923296972
141.85129684719712
285.19112009524656
433.3201000241623
579.915338926102
718.2042832136135
841.4948398761311
943.6821868690088
1019.684058026111
1065.7698721264233
1079.7623145678199
1061.1037130177313
1010.7964812864925
931.2408373272399
825.9982213045066
699.510477895609
556.8056627985982
403.2150282441827
244.11551715174392
84.70674088136064
-70.17350937741097
-216.19660886346512
-349.65602127752146
-467.5504558851102
-567.6431527652549
-648.4986216273871
-709.4926952299921
-750.7920145190168
-773.3040102781672
-778.6000573406423
-768.8129500004662
-746.5117991980613
-714.5598434612149
-675.961463953026
-633.7072999842608
-590.6282111532469
-549.26753103408
-511.7791002611157
-479.856410008196
-454.6941729375035
-436.980387272026
-426.91717159015286
-424.267190919228
-428.4185917446936
-438.4624486479729
-453.27895816534357
-471.6253348829034
-492.21602841864035
-513.7906387221891
-535.1704590401755
-555.3026364413957
-573.2905248137597
-588.4135372383295
-600.1382696370235
-608.1196873795349
-612.1927306780914
-612.3574467494194
-608.7618815725777
-601.6827398666661
-591.5020749857305
-578.6809588563002
-563.7291059469458
-547.1668688696558
-529.4720944949516
-510.99669171372943
-491.8407832208592
-471.69102793581953
-449.6574388558146
-424.16908201887384
-392.99272802441664
-353.4151166529189
-302.58824780307987
-237.98682723844848
-157.89250692084818
-61.812755862895244
49.244896581461205
172.6892821128611
304.45888004525784
439.30950110179276
571.2320158482107
693.940386807923
801.3686961118799
888.125319484932
949.8655883877041
983.5571796773582
987.6233630796188
961.9616436083434
907.853006018939
827.7897644278121
725.2492778905827
604.4373360004423
470.02483117570694
326.8972215925538
179.93013992093785
33.79857504361928
-107.18067323847109
-239.1766374577159
-358.94422367912216
-463.8993001787952
-552.1703680919469
-622.6262747773758
-674.8781182846672
-709.2546201909751
-726.7524486978057
-728.9601321299909
-717.9547725520935
-696.1770691905162
-666.2916356380521
-631.0409624717925
-593.1046734432017
-554.9741645498099
-518.8485211055781
-486.55478524122145
-459.4954460944542
-438.6255761650878
-424.4565317346965
-417.07951110862814
-416.20708769668556
-421.23259992734
-431.3016342477192
-445.3881727982763
-462.3700003129148
-481.09814065993686
-500.4567729093873
-519.4128785454227
-537.0555300520117
-552.6236026620905
-565.5200500406919
-575.3143097472503
-581.7372864059985
-584.6696449750508
-584.1237390971814
-580.2252815007917
-573.1972242012658
-563.3411328674969
-551.01637825282
-536.621345799027
-520.5769409827184
-503.31172577021425
-485.2481871117842
-466.78909601915524
-448.3015759643286
-430.0898224390407
-412.3398909100141
-395.02268161278414
-377.75950683936384
-359.6810497739987
-339.3317607013139
-314.6760738886457
-283.24338160526145
-242.41251510500013
-189.7970703073629
-123.66224903189834
-43.29461294551899
50.741544808647845
156.50358927968264
270.7380976379109
389.1004732024995
506.4900157173132
617.4526222420739
716.6026374409175
799.021667590565
860.6004724772355
898.2988142946036
910.3068266487817
896.1011027044738
856.4009775432539
793.0425004562444
708.7943466983777
607.1424847984152
492.06779204783015
367.83094671684137
238.77025928520868
109.11939618390386
-17.145721534900076
-136.43113130280923
-245.62901943843315
-342.2047368395142
-424.2625744095464
-490.587609195244
-540.6622605426255
-574.6552496974077
-593.3819805188023
-598.2368069972553
-591.0979527694255
-574.208382732989
-550.0386670557614
-521.140826772691
-490.00733717107016
-458.94700110382246
-429.981370453634
-404.76582722180416
-384.54017272360477
-370.1092680870355
-361.8520250751732
-359.7545225224845
-363.45987895078156
-372.3277747806121
-385.5007574209447
-401.97576533427184
-420.6750266075922
-440.51023557978044
-460.437960546274
-479.5055109965157
-496.8865292905601
-511.9067545811697
-524.0599984530636
-533.0127052334484
-538.5974558963156
-540.7994724967914
-539.7390190318742
-535.6486126621146
-528.8444657153401
-519.6960500627321
-508.59871203400826
-495.94929385055457
-482.11408603760054
-467.36873980391357
-451.7980269375665
-435.16744025011525
-416.798900230093
-395.4944186319773
-369.55236003402814
-336.9040062429291
-295.36779328832176
-242.98623749329624
-178.38608221828036
-101.09378822591648
-11.749356968650375
87.81535368271986
194.64157781393598
304.83672746107425
413.86517151529046
516.8979988263367
609.1813098180224
686.3852726290162
744.9012975908846
782.0639338435883
796.2842979969372
787.0915812973199
755.0912287608688
701.8576349393422
629.780134547269
541.8795472208442
441.6132647879771
332.6857761152746
218.87721603713675
103.89514698105046
-8.75490114157995
-115.88484502565433
-214.72091280348252
-302.97748856501323
-378.91098462812823
-441.35753827872924
-489.7529086396104
-524.1290488424036
-545.0835945258466
-553.7223736295174
-551.5777769069973
-540.5086673778301
-522.588504844144
-499.9883511713357
-474.862756701525
-449.2440519707022
-424.94769507755785
-403.49565752965543
-386.06489228743254
-373.4600842029282
-366.10925133614006
-364.0837295873287
-367.13927204611116
-374.7698732602457
-386.2668875870946
-400.7803554822549
-417.38185816756675
-435.1246284947102
-453.0945230899087
-470.45007528757736
-486.4530412705381
-500.4886399591129
-512.0746585703549
-520.8631327708738
-526.6388575967179
-529.315032957731
-528.9247504423706
-525.6083287175976
-519.5976352757455
-511.1982431598384
-500.7699762484019
-488.7056203715296
-475.40707807545317
-461.2582327101622
-446.58746583213116
-431.60485175205173
-416.3046990679414
-400.34253308974587
-382.91628160813195
-362.695884381728
-337.8459670006017
-306.1704417673578
-265.3768532458189
-213.42135163137493
-148.87300393552937
-71.23409303707913
18.840058380455133
119.46107137664073
227.57761044672043
339.180511710199
449.61076469350155
553.9255063472083
647.2765947229211
725.2654852420992
784.2439520705341
821.5348627549828
835.559847396753
825.874706085729
793.1205350891437
738.9065476041569
665.6485358528172
576.3836985037246
474.57680760224787
363.9320593957825
248.22228725561018
131.14140546295198
16.177892822000132
-93.49647597990494
-195.12227911958516
-286.42754593734287
-365.68084599636313
-431.7252717839357
-483.993848836351
-522.501003050066
-547.806877053771
-560.9582196683936
-563.4100292184045
-556.9302481514596
-543.4925470457299
-525.1659001983284
-504.0085943760831
-481.9702051286175
-460.80350736400567
-441.99089693093265
-426.6924382648531
-415.7181423256973
-409.52095411993827
-408.20989210378394
-411.58465962389886
-419.18629054328966
-430.3563656651826
-444.30083274974464
-460.15275734719773
-477.0270861442622
-494.06606245146304
-510.4774361348687
-525.565006420597
-538.7489224880273
-549.5758572328149
-557.7227997654858
-562.9960785834602
-565.3238528503705
-564.7423275110673
-561.3784962835743
-555.4318642115687
-547.1568348474724
-536.8472234856125
-524.823773213951
-511.4243729344752
-496.995172169487
-481.87961321893135
-466.40235979306055
-450.8431708580849
-435.39164042546315
-420.07298349108675
-404.6425513787133
-388.46546888012875
-370.42021351556906
-348.87556490222187
-321.7796242876294
-286.86982781248986
-241.9790538716652
-185.38783512702776
-116.15961217333685
-34.39723337982531
58.62307286337001
160.45658085450168
267.6280549559426
375.8809555643922
480.50322989635515
576.6909346580985
659.911138483661
726.2268395298388
772.5534458715609
796.8286379132761
798.0901238789568
776.465129536114
733.0854820568311
669.951030616088
589.761303056882
495.728447155788
391.3871653192425
280.4192920725501
166.50092836490916
53.17040647398147
-56.285407457290646
-158.9289004585459
-252.2564168714398
-334.26914217387866
-403.52659378576107
-459.1802201919055
-500.9839489986983
-529.274871178928
-544.9213856574881
-549.2462448816615
-543.9327598765552
-530.9184585105079
-512.2818229341274
-490.1291134224159
-466.48737127923573
-443.20932808801297
-421.89455636920354
-403.83030204143074
-389.9562576963834
-380.85446768894656
-376.76032230993764
-377.59075471716324
-382.9872466954491
-392.36846065127844
-404.987503376385
-419.9926447485851
-436.4878682947101
-453.5857042261336
-470.44881325071947
-486.3219244229741
-500.55608667126296
-512.6253240177642
-522.1337130041504
-528.8137257484059
-532.5213188854143
-533.2306399396384
-531.0262912881451
-526.0904111904417
-518.6838005083881
-509.1235123431285
-497.76118171705457
-484.964542188793
-471.10248090765157
-456.53359758003995
-441.5966174817595
-426.59871713335315
-411.7954304758947
-397.35033741846615
-383.2602810107047
-369.2449424013519
-354.6240227217667
-338.22387994796554
-318.3598267569073
-292.92874656399744
-259.6207635340839
-216.228512960653
-161.0068293624127
-93.01753299572277
-12.391548846330522
79.53994112575755
180.26092356791133
286.2200525593023
393.0877470773994
496.088619408384
590.3717133743362
671.3771588731734
735.1603757662405
778.6457763467902
799.7950211027618
797.6848208449429
772.4981542098382
725.4413283125014
658.6047264501839
574.7882377024632
477.31305644051986
369.83581618427536
256.1726276561805
140.13648704118242
25.390424136236447
-84.68129582220907
-187.0818059107689
-279.29062616471845
-359.33481561469307
-425.8406953705028
-478.06205741908605
-515.8831077392883
-539.7956406081202
-550.8479684115938
-550.5635649498956
-540.8328368662584
-523.7892643352187
-501.68329164904014
-476.76145917996723
-451.15411900806964
-426.77552481860425
-405.24090033209853
-387.8075979428473
-375.34665492027597
-368.3419199200757
-366.9087156714948
-370.8284730929344
-379.59727320492897
-392.48458206789456
-408.60027667058637
-426.96509468443014
-446.5752887161358
-466.45692557476457
-485.71042739905806
-503.5463039936644
-519.3109116126345
-532.4978964438898
-542.7451057417562
-549.8246026127202
-553.6322996672383
-554.1787151997783
-551.5796579690164
-546.0436492967293
-537.8550688863673
-527.3565438193582
-514.9331057138879
-500.99639404962477
-485.96649664804363
-470.25051450371643
-454.21488505296844
-438.1403684679351
-422.1444150144581
-406.067585203957
-389.3413004179297
-370.8746103913228
-349.0126068203472
-321.6112854539615
-286.2426497517471
-240.51029874376718
-182.42789825633207
-110.79414311338581
-25.49658438453261
72.30850897912644
180.1698837787303
294.470837681982
410.69041863898644
523.7544307074154
628.4302309551326
719.7233113154232
793.2368961014117
845.4620183899175
873.9781052680166
877.5554745959923
856.1613983114264
810.882218753748
743.7798025032841
657.7048425235263
556.0918929619827
442.75452598026766
321.6926516757975
196.92110401565225
72.3209695833803
-48.49007347244233
-162.26953136570842
-266.2434458681289
-358.18066740975206
-436.44524419170926
-500.02593289456354
-548.5450330585232
-582.244873143421
-601.9471274401961
-608.984762500679
-605.1112633090637
-592.3920646332723
-573.0826931501134
-549.5003381366505
-523.8995739240431
-498.36262868527615
-474.70807913979115
-454.4209915152666
-438.61046500275
-427.9942947591364
-422.905050672876
-423.3147676479836
-428.8773177213043
-438.9854195818722
-452.83608875472004
-469.4986199999904
-487.98135615450536
-507.2925620116377
-526.4900279613635
-544.7167441918477
-561.2255445024512
-575.3981999500915
-586.7595014987329
-594.9835394623284
-599.8921490867613
-601.4470074457721
-599.7349272679539
-594.9459208724732
-587.3483448835715
-577.2679783415911
-565.0729886769493
-551.1608823548011
-535.9441399585943
-519.8346642099426
-503.22687243250425
-486.47673707236095
-469.8680307606859
-453.5484604458723
-437.42251959157306
-421.0112069112374
-403.31842007707337
-382.7601683821875
-357.20449326478763
-324.1460704436088
-281.0096369280626
-225.54159713668213
-156.21983144274333
-72.6046979764605
24.431102385323612
132.6323769875398
248.45912583873263
367.3304769638286
483.9769477853972
592.8565048749566
688.5870957864811
766.3497042922083
822.2232488186404
853.425482569427
858.4465795370625
837.0746933789649
790.3265037447985
720.3027179661287
629.991740825929
523.0496611349674
403.5797575840925
275.91962598761677
144.43924590790203
13.360662312982015
-113.39103133836255
-232.30692796376016
-340.3897932114217
-435.2282497095411
-515.0496769779365
-578.7515405219738
-625.9105140325452
-656.7678792771886
-672.1893000745965
-673.5985404895391
-662.8861097570717
-642.2946315653386
-614.2878381720194
-581.4158046004347
-546.1867243568823
-510.950651164458
-477.7991895411018
-448.4849362705756
-424.3642228921809
-406.3646523920145
-394.9773285294352
-390.274655471709
-391.95239022175423
-399.3899285433897
-411.72207355272246
-427.9157500433388
-446.84469378340816
-467.357691497365
-488.33794521955286
-508.75138297676034
-527.683994397242
-544.3692514265347
-558.2050274685993
-568.7601666582901
-575.7724134217764
-579.1383747459118
-578.8952833295596
-575.1974033671664
-568.29372260813
-558.5087917706753
-546.2229454382064
-531.8528552548161
-515.834715706793
-498.60718844025564
-480.59278389456085
-462.17894789184356
-443.6949761986739
-425.3708527961916
-407.25805830837504
-389.1047071708212
-370.20803792795573
-349.2946018179503
-324.48563638139944
-293.3934367793398
-253.36663902200814
-201.85922809808824
-136.8587145791913
-57.295029290950936
36.642431463785584
143.33782947024986
259.76166159894683
381.65467676405996
503.8467281238944
620.6638214674149
726.3737360856941
815.6214738318045
883.8127854574495
927.414882905458
944.1555324646605
933.1147822703781
894.7138755405106
830.6120149679515
743.530352012235
637.0325353802676
515.2884155235257
382.8369786620567
244.36235801473106
104.4949219730496
-32.35973592062197
-162.1665846585549
-281.38438961958576
-387.06814957891726
-476.94901910916906
-549.4896706881875
-603.916375401554
-640.2253863110925
-659.1558678033176
-662.1252736030503
-651.1298581017496
-628.616920277008
-597.3375729065762
-560.1892689035061
-520.0583126154032
-479.6736392728303
-441.4815384036141
-407.54869021318143
-379.49484278805403
-358.4516423907742
-345.04956910334175
-339.43663037386193
-341.32346116294957
-350.0464910446957
-364.64512967439447
-383.9477151926104
-406.6576860178416
-431.4334876079936
-456.95918485426046
-482.00462825381567
-505.47566696831547
-526.4537372630027
-544.2195376771383
-558.2583047639756
-568.2538922941872
-574.078211438546
-575.7760131332577
-573.544815557708
-567.7093587000733
-558.6901103854166
-546.9698776336082
-533.0631109285259
-517.4849931370775
-500.70620474010923
-483.07448542952693
-464.69172749497886
-445.25492329695464
-423.89935040336104
-399.1054254860953
-368.7279569016434
-330.1814604911789
-280.7748118508715
-218.14323861982803
-140.69858938216305
-48.01666021339639
58.90778670581115
177.5822568237889
304.12243750776435
433.52040876556583
560.0325909274853
677.6354163759138
780.4961705401494
863.4095100139764
922.1585205176176
953.7741247276489
956.6805168616793
930.7246511391667
877.0992088816461
798.1812333968971
697.3160026434109
578.5721643363075
446.48813319324665
305.82934053807514
161.37238703072927
17.72108578957466
-120.84757301267858
-250.51019653803053
-368.0004074527277
-470.69043417729927
-556.6501879796615
-624.6860435662268
-674.3586119101172
-705.9721137215379
-720.5298767844673
-719.6573258162576
-705.4963029912361
-680.5761936094234
-647.6712191809407
-609.6519510272075
-569.336212703662
-529.3489065022451
-492.0030945046858
-459.20923781329907
-432.41575474138165
-412.5831491291222
-400.1876529741699
-395.2471973098324
-397.36879156256055
-405.81697316269003
-419.5951745822585
-437.52967088904006
-458.35126526699264
-480.77320838475777
-503.5603488504967
-525.582667665907
-545.8523960183718
-563.5490696004308
-578.0349224099633
-588.8608580367286
-595.7642631085105
-598.6602226618801
-597.6269893418242
-592.885678630139
-584.7740899554774
-573.717270248277
-560.1985787884031
-544.7327129971461
-527.8408995428257
-510.02678603215793
-491.74521823737837
-473.3457272145338
-454.9715324567135
-436.4138776017084
-416.9494839934988
-395.21340432241385
-369.16952029009127
-336.22679695023055
-293.5159568560015
-238.29637946053163
-168.42227987727057
-82.7815474126773
18.369658618676112
133.2326918432802
258.4827574082901
389.471614732633
520.5787644392938
645.6579423191733
758.5244022717814
853.4293914001943
925.4753711721506
970.9387066261247
987.4796062491484
974.2325184405784
931.7824488942488
862.0415487370143
768.0481353647907
653.7173204017715
523.5741245808607
382.49325075071715
235.45944293185732
87.35548136523465
-57.218151713410975
-194.09215174462906
-319.6488483027505
-430.91442616303243
-525.623659552826
-602.2615810509807
-660.0839231263678
-699.1123802421968
-720.0994564693767
-724.4627590520167
-714.1925303582642
-691.735362765629
-659.8566796660472
-621.4866825136613
-579.5615153711603
-536.87625160488
-495.9595808709927
-458.97367488936743
-427.6430279509307
-403.21266789929194
-386.43216874242853
-377.5650859925897
-376.424648723436
-382.4320710847551
-394.69033755197864
-412.06592978610956
-433.27361605976216
-456.96046105037635
-481.7839315498366
-506.4798191347875
-529.917092463425
-551.1366849353626
-569.3720370889667
-584.0538460903751
-594.8054348269228
-601.4332476553466
-603.912494701219
-602.3663413349659
-597.0406535741157
-588.2790139690703
-576.4999905967942
-562.1768013448406
-545.818520391325
-527.9495164071292
-509.0849602051703
-489.7027038756886
-470.20688216910025
-450.8662756089671
-431.7072025654857
-412.3606683510091
-391.8981875106007
-368.7192341726598
-340.55743413819243
-304.6473501913839
-258.05063198322046
-198.09692393866982
-122.8633657532107
-31.604150212908564
74.94863903704754
194.46454543098
323.09151302674115
455.7144787421589
586.354423011172
708.6505571260709
816.3652200378302
903.8565276506081
966.4763605097472
1000.865625173534
1005.1295453956808
978.8893520849851
923.2212169956305
840.5027639957023
734.1931477196376
608.5748155920885
468.48421432825603
319.0527832600337
165.4703018201298
12.776646351794739
-134.3157584096801
-271.5712789361487
-395.35842426153613
-502.75777024473877
-591.6441275778413
-660.7359620351483
-709.6100016969566
-738.6798797952127
-749.1391743915297
-742.8718739788808
-722.3340718894524
-690.4097874688166
-650.2447915159737
-605.0708616544661
-558.0375552547306
-512.0606876683628
-469.691958231626
-433.0167714148867
-403.5869897791853
-382.3921962578975
-369.8676354596529
-365.93265467574224
-370.0540345194261
-381.32720029107514
-398.5662214399605
-420.39769837203653
-445.3560862372397
-471.97256364574105
-498.8488122056982
-524.7150826755503
-548.474380782928
-569.2311041374297
-586.3042090067771
-599.2296445105501
-607.7554991575789
-611.8287156335559
-611.5727360121981
-607.258621108368
-599.273464961297
-588.089511993328
-574.2358430348781
-558.2726672336079
-540.7625486918315
-522.2257203216592
-503.0646048007793
-483.44478536442466
-463.1336299778695
-441.3302141670897
-416.5492503434664
-386.6243957765046
-348.87356146698176
-300.42577634497803
-238.66079970417854
-161.68366960905286
-68.75100683864173
39.42505421931662
160.54910968439196
290.8124943887654
425.1450122180278
557.6051865588013
681.8553910155293
791.6644195295992
881.3818518057083
946.3410219057508
983.1599742345411
989.9193383040171
966.2123277789685
913.0797989770775
832.8541448179204
728.9399740441281
605.5572907298055
467.47107190404347
319.73075907135853
167.4359863170663
15.534300999913683
-131.3495510417639
-269.0556599151005
-394.00633964859975
-503.3011814588302
-594.7887919560897
-667.1138852344011
-719.7375888702459
-752.9261939320088
-767.7059527591393
-765.7859820647046
-749.4507983108301
-721.4237842499949
-684.7080675516659
-642.4169387428408
-597.607955384736
-553.1333367138869
-511.51549960923035
-474.85250398332266
-444.7532382069616
-422.30122082468233
-408.0505541119136
-402.05483899119525
-403.9206007804479
-412.8754344344012
-427.84664492789005
-447.5500124233857
-470.58498067983265
-495.52579723256935
-520.9988853176505
-545.7432496994187
-568.6555051364011
-588.8220114961218
-605.5376212984252
-618.309621763768
-626.8493585220267
-631.0557967533236
-630.9932779487877
-626.8658225521461
-618.9913300107273
-607.7760601633543
-593.6875573154382
-577.228145092291
-558.9136800578831
-539.2576034007899
-518.756236452152
-497.8738815016751
-477.0296387443168
-456.5807726577926
-436.7830437725223
-417.7040112610035
-399.08058210958546
-380.1444531404014
-359.4726928272342
-334.9347534847551
-303.7933254656553
-262.9771723919872
-209.49613464862665
-140.9323416980268
-55.92028300579739
45.47576678795053
161.5558475953155
288.9797881618611
422.95951532366087
557.6167244593041
686.4534918509678
802.8747001513074
900.7037996856732
974.6408054393839
1020.6222629441324
1036.0585316532724
1019.9398089403132
972.8150375659595
896.6613343643772
794.6730433367717
671.0011236140255
530.4705811904751
378.3008045417314
219.8457558544162
60.36197301347892
-95.18984618834153
-242.30645540380434
-377.0709449537933
-496.2556722570177
-597.4005363187737
-678.8644074913739
-739.8493525384308
-780.3952733122157
-801.340171243246
-804.2464762440228
-791.2986794826572
-765.1745885853712
-728.8923296210413
-685.6426800020903
-638.6197239963725
-590.8617363740368
-545.1124087526127
-503.708536418882
-468.4990074076469
-440.79940351215777
-421.38131011596397
-410.4919095606171
-407.89978997417904
-412.96150939955044
-424.70188677489637
-441.9021093132721
-463.1912264038827
-487.1358331950248
-512.3208098566022
-537.415567842523
-561.2255425618143
-582.7305122108462
-601.1088014794128
-615.7476957869405
-626.2431542896478
-632.3904816694843
-634.166996834489
-631.7079465901629
-625.2772034598626
-615.2374614714835
-602.023976854001
-586.1199349403
-568.0312761550051
-548.2642237293774
-527.309475582489
-505.6332394073388
-483.67175980396087
-461.82425045474525
-440.44038821306503
-419.79708838558184
-400.04959693520783
-381.1353114632867
-362.6241425176989
-343.54433600473845
-322.24622039423303
-296.37974346251127
-263.0414982512771
-219.09746041664107
-161.63581787512447
-88.47058625325622
1.3961739408128153
107.43874132972891
227.45652406705995
357.6267121516843
492.7486071288416
626.6426497207575
752.6463707396057
864.145207074695
955.0840828121962
1020.4109284997844
1056.4116668410281
1060.914735709673
1033.3628000133447
974.7621103923593
887.5291841440489
775.2630780785302
642.4740682719905
494.2949872631518
336.196899894421
173.72657089075096
12.27549865571683
-143.1173540906239
-287.9296722750213
-418.2886955456005
-531.0758186812564
-624.0035279981122
-695.66581527211
-745.5630309687785
-774.0944359451611
-782.508404777919
-772.8092902516787
-747.6302134416518
-710.0807875202147
-663.5751328178009
-611.6483988327017
-557.772191340771
-505.1805027642587
-456.71955778254596
-414.73038366779974
-380.96955966577485
-356.5735096835847
-342.0646528932035
-337.3901997463561
-341.9849180981534
-354.85299588907276
-374.66517498115735
-399.8645002076463
-428.77334559550246
-459.69642774157165
-491.0116610171544
-521.2414226186854
-549.1049058331412
-573.5531789983704
-593.7866033892591
-609.2570646389087
-619.6575734294444
-624.901121693616
-625.094303847992
-620.5110755810815
-611.5650873680737
-598.7775888193181
-582.7432047541021
-564.0981542955346
-543.4933471229264
-521.5711839681061
-498.94415545625634
-476.1724955169383
-453.7293282254221
-431.9321341389126
-410.822487897482
-389.9983310372739
-368.4381475903535
-344.38270121653045
-315.34483675910656
-278.2962203622251
-230.0304974691506
-167.64931430423252
-89.08453590668708
6.439899364590616
118.0902659401191
243.303448766268
377.8803827948345
516.2701816291507
652.0017452896544
778.2101781162999
888.1940136677563
975.9379000311968
1036.5510022044848
1066.5855330996837
1064.2143725058218
1029.2684132682637
963.1482940822343
868.6354701644912
749.6386017519895
610.9090219654234
457.7486653108125
295.72828309000124
130.43134886323918
-32.76693979849455
-188.88588205399634
-333.49419066241467
-462.8335874048806
-573.9138725268579
-664.585348746808
-733.5871207834505
-780.5643391624523
-806.0498470949243
-811.4081039870858
-798.7424477422484
-770.7688579527785
-730.6599877190412
-681.8687633981026
-627.9442939362611
-572.3505487329214
-518.2976906320001
-468.596765265478
-425.5472597811265
-390.86276257076815
-365.6360910663086
-350.3431124559005
-344.88194743721556
-348.6424765924213
-360.5981605184823
-379.4086924427234
-403.52363374531797
-431.2833229855852
-461.0155067769678
-491.1218243965167
-520.147051563548
-546.8302830247228
-570.1412124191363
-589.3008267250406
-603.784378767277
-613.3095880434852
-617.8154883439413
-617.4343472774799
-612.4574059179607
-603.2989716734346
-590.4639653493163
-574.5176074466098
-556.0566300818001
-535.6873701442094
-514.0111151735808
-491.60913048213706
-469.02242679849724
-446.7243908134247
-425.0765149966956
-404.24688396879213
-384.0743510311561
-363.88776479319665
-342.3312048917291
-317.27514483817737
-285.88456592536323
-244.874319461891
-190.93382125872648
-121.25881689689004
-34.09284104439769
70.82855249462457
192.01260221790722
326.16273179654536
468.35200513344574
612.3867577179797
751.305251512758
877.9439743591643
985.5053948924512
1068.069565289938
1121.0066680142845
1141.2628056635665
1127.5026233195174
1080.1085810479728
1001.0555686479729
893.6887693792207
762.4362430120909
612.4918554266258
449.50136915885514
279.2712849806428
107.50981756061077
-60.39200420184966
-219.53598131726145
-365.6541532520527
-495.21413247688815
-605.4961374030884
-694.6449888438195
-761.698144369534
-806.5861601192296
-830.1002436797255
-833.8241466622716
-820.0311419629328
-791.5505996080263
-751.6109234985116
-703.664991087431
-651.207357467642
-597.5989344006282
-545.9129789252147
-498.80753225130263
-458.42623771765216
-426.33292568708356
-403.4861408275779
-390.2509552002499
-386.4394789746626
-391.3780827472557
-403.9989444027763
-422.944319367628
-446.6732406994097
-473.56489825089284
-502.0114405116195
-530.4949845542897
-557.6493584880559
-582.307980425333
-603.535113929612
-620.6366505672594
-633.1535601385737
-640.8458835666098
-643.6721093758288
-641.7664891261568
-635.4147554537343
-625.0259932284567
-611.1007851662819
-594.1995495707308
-574.9141526203432
-553.8436439477354
-531.5745294671866
-508.66416585212926
-485.6239841864856
-462.89999278423466
-440.8440432531842
-419.65720140359366
-399.2814291105339
-379.23572191107235
-358.4326330824657
-335.045242990668
-306.50187108494276
-269.6606377557539
-221.16909713134442
-157.96381896454642
-77.82300124996229
20.136376764808432
135.11408642217333
264.49327187377224
403.93269881892866
547.6651576750398
688.9557198511359
820.653625847265
935.7678778873893
1028.0065782221316
1092.2318121939384
1124.793589763183
1123.7216147113181
1088.7722204012491
1021.3454473265417
924.2986112832441
801.6865140543863
658.4596757248661
500.15256459843624
332.5873593477851
161.60733781239912
-7.154189680666093
-168.4693862493349
-317.6791805910689
-450.8273837431973
-564.769158443713
-657.255208280767
-726.9864042083466
-773.6319020113331
-797.8079716671876
-801.0175001497281
-785.550077931552
-754.343554069955
-710.8120434684427
-658.650730041627
-601.632531364138
-543.4125530576241
-487.35200804156375
-436.3691829903423
-392.82450206571883
-358.44649709494803
-334.3018528783859
-320.80665161960724
-317.7718837471899
-324.4760596310568
-339.7593139019532
-362.13324612762045
-389.8973433366773
-421.2520873779084
-454.4024946642788
-487.64708766210236
-519.4483380311663
-548.4841792791788
-573.6815505893054
-594.2334602181219
-609.6022354025436
-619.5111356525242
-623.926488758713
-623.0321651821735
-617.1965841315222
-606.9343321621576
-592.8670366474588
-575.6869476981319
-556.124098906825
-534.914841244778
-512.7677094537868
-490.32062374589816
-468.0767215372788
-446.30040933524396
-424.863595417141
-403.06228142076935
-379.46268848953395
-351.8519564548389
-317.34886793062964
-272.69139702566247
-214.67523277260602
-140.6786681106027
-49.18219720034358
59.81631652291155
184.56980901825406
321.5694359270581
465.74500459158793
610.8434367571793
749.9303417974064
875.9507433845458
982.2866053644981
1063.2533944672537
1114.4885183965398
1133.204782498114
1118.3018850557548
1070.3428310355532
991.414261348978
884.8993423821876
755.1981363645696
607.4290888765842
447.1342257713778
280.0032229928702
111.6295013154957
-52.695178873713616
-208.14958882816074
-350.52243872517545
-476.3278879326658
-582.8957140218716
-668.4330781153405
-732.0585731339463
-773.8067750615382
-794.5953730108181
-796.1485126228171
-780.8778530104955
-751.7294748526533
-712.0084880435519
-665.1935088388215
-614.7527991656019
-563.9751091723862
-515.824772818791
-472.82311590458755
-436.9579363010115
-409.62755288494856
-391.6235319963882
-383.1495696101965
-383.8723709386414
-392.99923304775746
-409.37416739963015
-431.5837365832644
-458.0625104331828
-487.1898366384036
-517.3759139961326
-547.1361923465183
-575.150629539816
-600.3057190245772
-621.7201031204125
-638.7548010269043
-651.0086517218728
-658.3020883134842
-660.6547498185565
-658.2596606518847
-651.4532328825462
-640.6824792978954
-626.4740971246746
-609.4085671907128
-590.0973363905256
-569.1589751450027
-547.1948041020147
-524.7698985281069
-502.4022499643154
-480.55264962342324
-459.6026514750111
-439.8067575195328
-421.19937857093134
-403.4438066156664
-385.6450839673696
-366.1890345153408
-342.68674573363353
-312.0871465998481
-270.97455783339547
-216.01732164023468
-144.49706033449712
-54.82628327065592
53.03925545796727
177.36553606318793
314.6209414434379
459.67375111564934
606.1735193545869
747.0588316253161
875.1240529886778
983.5815863446903
1066.5662243876006
1119.5390528290773
1139.559516417702
1125.4108907732152
1077.5860054558543
998.1544414595417
890.5366689286445
759.2148149740673
609.4150296429528
446.7930621599327
277.1432467319331
106.14061241034773
-60.88012222608336
-219.10644510034274
-364.39074861014086
-493.35800204648865
-603.4816354738305
-693.1265933548882
-761.5582528880716
-808.9175340576453
-836.1615928388841
-844.9696715871837
-837.6200598783394
-816.8477072513984
-785.6873994512196
-747.3083756486934
-704.8521805770538
-661.2833086475033
-619.2591398971084
-581.0275012366528
-548.357042133858
-522.5001502411415
-504.1883770844678
-493.65800935779555
-490.6984165434423
-494.71779366452347
-504.82318982227486
-519.9091395895645
-538.7470609849129
-560.0686322048984
-582.6386174994303
-605.3127827191347
-627.0791475366328
-647.0848465731461
-664.6493506158613
-679.2639126165201
-690.5806793566878
-698.3971172076958
-702.6387714273882
-703.3396517236312
-700.6220951068332
-694.6797331938149
-685.7622837243911
-674.1601582701355
-660.1902623685312
-644.1851136355596
-626.4869771785802
-607.4452148881327
-587.4120879928181
-566.7377169845246
-545.7673182959311
-524.8361652342547
-504.2527770418641
-484.2568159791414
-464.9311849392247
-446.0572940192049
-426.9349630486177
-406.22040586066845
-381.85146896409674
-351.12274973722384
-310.93745046404837
-258.2123938552543
-190.3702548385407
-105.83018155473786
-4.409998816020419
112.42794155781102
241.53064703967752
378.21732606081923
516.6214229137157
650.1579994831063
772.0551158237552
875.8860162623556
956.0462533616089
1008.1373606838954
1029.2315396648626
1018.0035888404066
974.7352637173956
901.2087757673303
800.5104935645427
676.7742112860824
534.8960285908018
380.24381900018125
218.37869450877292
54.80720003990041
-105.22723096266174
-256.91979961145233
-396.0526599374542
-519.1158294853905
-623.3996087374114
-707.0570724262438
-769.1341798829837
-809.5671940962917
-829.1494372254461
-829.4666526486963
-812.7982954874356
-781.9853866907841
-740.2696368674237
-691.1128317274731
-638.010043710779
-584.311218388777
-533.062559609849
-486.87531294505095
-447.82825774901767
-417.4094073946793
-396.4981542467784
-385.3833576506318
-383.80987958697943
-391.0479744631882
-405.9823067067392
-427.21476141310177
-453.171724104699
-482.2055656757121
-512.6823294265012
-543.0540765425187
-571.9194733123506
-598.0745639060192
-620.5500407491468
-638.6304717488844
-651.8573422602569
-660.0217622239552
-663.148345973212
-661.4675456954685
-655.3782890639156
-645.4086148519868
-632.1781916103907
-616.3601585428223
-598.6384734542086
-579.6522162424964
-559.9106727418666
-539.6656952275339
-518.7451977608249
-496.38066216225764
-471.08941426996194
-440.6786810044253
-402.41380257449003
-353.34853322986146
-290.77199682669436
-212.69700229358375
-118.30186154028831
-8.246728255266817
115.18759371201256
248.15860047540326
385.5085884138337
521.1596777147197
648.5998998055911
761.3996701337811
853.7026922873392
920.6453801302073
958.6728991091154
965.7320787171584
941.3333254769476
886.4895954712135
803.55672004461
696.0076220775685
568.1697864961715
424.94857849990626
271.5566724195903
113.26778968405773
-44.79399190059007
-197.8282144328906
-341.5020197852844
-472.0701836655378
-586.4723636031938
-682.4070384305971
-758.3814328353953
-813.736249729687
-848.6414787389162
-864.057448704111
-861.6593589188501
-843.7287922280859
-813.0178369027442
-772.5937963622989
-725.6749135248851
-675.4670940812115
-625.0101822343875
-577.0425803527942
-533.8911330175399
-497.38940506150584
-468.8282479797509
-448.94266210932324
-437.9323490631327
-435.5093646488212
-440.967244412262
-453.2645709804162
-471.11562008026993
-493.08418704021557
-517.6767996721607
-543.4273732844879
-568.9655670270554
-593.0688654992986
-614.7028827510987
-633.0481620968884
-647.5083858454774
-657.7023071995225
-663.4468845593624
-664.7372873009641
-661.7266918619745
-654.7048807438937
-644.0725257901233
-630.3122463627737
-613.9603443906283
-595.5804938788058
-575.7404065698636
-554.9921351540086
-533.8484871091895
-512.7386043316346
-491.92393445229527
-471.3645187279416
-450.54611406713553
-428.3075630683472
-402.7342955247482
-371.1881101220717
-330.51516669308165
-277.4272439860794
-209.00359658776267
-123.22419409695237
-19.432808911778807
101.35344886003514
236.33703665665593
381.04914559272015
529.6549887034375
675.407983528773
