765.8272976114961
1012.8491888882731
973.708571411671
1004.4096578518843
973.0354062621116
987.1710794807598
963.1015875303652
978.6891201123476
959.942280520136
983.4653350593104
960.7590665204497
990.6780430230804
962.665647845369
1004.9689698889122
971.5149294894997
1015.9841415073108
972.6428849817071
1026.3477647747134
977.250662075173
1041.7163322299111
981.5925492240817
1062.2797142698646
1012.5410922115665
1137.2344372901307
1140.656712494193
1348.1596981349699
1408.4708986097032
1675.2051113166503
1751.8329420945936
2007.3683547532598
2024.7587883164554
2209.939337688629
2135.784026535339
2248.4223404560776
2096.599015940251
2159.2035338848996
1962.6114164588682
2002.1121114805505
1784.0521926917106
1823.5945816291933
1603.5364082972953
1649.0493521390692
1430.237265851731
1488.018791028639
1276.3240898585161
1341.5308137227296
1132.3131831500773
1207.5429332984002
1011.2720258009939
1102.6469179009823
931.1214796282667
1047.467624457495
900.5763103484314
1036.4877243170843
913.9083353574595
1053.190967595836
935.9032095767519
1074.8522213084336
958.5369226373817
1087.2997647191326
967.44892422856
1072.3640630562916
951.0827815970356
1040.526997813643
920.9201501635629
1000.7924303460094
889.6122401381713
955.639211002337
853.7528569828798
918.1472612262378
825.76300421364
882.0739202616192
805.8248932591081
854.570519371554
795.0942765172663
838.1828770225451
787.2548955140384
822.7712672018347
792.7611194096098
817.1403230133229
798.447468260994
818.9353671097316
814.0258358471895
819.6495739033006
832.5328212306565
833.2975413402452
858.8029535789672
845.5133539454272
883.0457935572576
858.8810827715727
905.492326099221
872.8600403742861
927.6329310874424
883.5614563219551
952.2744806332682
899.8385225367563
981.5618691085347
936.1316061568189
1061.4848952499844
1067.8786735535116
1285.9762783214767
1365.751594304405
1654.834001074767
1756.7261661809418
2034.047395193934
2072.843936215809
2270.0218139134076
2207.720376278484
2313.672569720142
2164.2000754520554
2204.1581892380996
2002.7098204195174
2018.3565761139807
1797.4304337056592
1806.16993390391
1590.3858441898064
1609.3172309070278
1402.0780212281843
1429.2798235652385
1229.2919203449387
1262.5892124757697
1076.2127410979479
1118.0788980123687
942.008322690408
997.7349456214004
848.7263219425403
924.2665822819955
804.7536622827865
896.2430976321713
802.7050032274107
905.4025082029297
830.2193749163873
935.8823006720003
866.8036691747292
958.1579751293249
888.4029717591793
959.7104954065294
890.889726211919
943.4752292335237
877.9302397846837
912.9336302926944
854.851087470877
880.3882251133074
827.3735222471228
848.2372998417267
808.1965476679538
814.5435088077746
790.2009163682875
790.2270861473673
777.7287318101631
775.6409075741643
777.550747439173
762.9921693535852
782.6979493321854
759.2852873054745
789.2156433147254
761.5092945775308
807.7729247031702
769.006636253462
826.6142889151887
784.3642641591525
858.7966734365065
800.2051397241427
883.7324906261836
826.4469441830728
916.5179709040418
848.3692857176856
948.6111520742834
874.6957101271043
978.6289772260704
891.6730849376257
1008.2941093999655
916.0215805914069
1036.2564053659542
934.8128059571912
1058.6637229838734
951.8292653113508
1084.0081575962288
1002.9525082089369
1199.5702630240694
1196.2881117674162
1485.054486769381
1564.1277984004596
1905.846944197285
1974.718343510547
2261.426725667064
2247.2781060757106
2424.6292511023976
2302.421138013877
2381.550945840252
2179.1341525013777
2198.8308036150256
1961.835112710491
1954.552689587168
1717.4104749337341
1711.8327687336841
1489.9197105790765
1495.1352858753294
1293.3541024481056
1303.817398534473
1123.332997312277
1139.218700941284
976.837895644663
999.0606187686926
862.8145369040176
901.0027512897184
794.8803589792095
849.5155445057766
781.7782207468582
852.5859500470134
812.9085329672894
889.8214326981705
872.2033525808322
934.3491331583252
920.9200059485785
965.072750282837
952.8373437291173
973.9439463392991
958.3793992447336
953.373987408623
945.8317979674573
924.9262822452761
922.6585427461923
890.2259693166848
900.7220774427834
858.8177649418603
879.8099060481859
831.4309810695015
866.145832032828
811.7346823542073
861.0135409870153
798.064183182041
865.5151313126843
797.1231746000908
872.0696919692318
793.6896732279208
883.5564509735008
800.3761015669398
898.3431443881688
810.2880863561192
918.0194548473135
830.0899812518635
947.0075799336994
853.3828699174586
973.3474492436405
875.1482172835134
1003.4259162625417
900.3986827402524
1029.3078971409825
926.2110910304659
1058.0403606745183
950.7990448277803
1079.8361274577758
968.9379941966229
1099.4268818876246
996.0756424012197
1152.7723005532434
1102.7051351815203
1340.821118882449
1392.1932594000289
1713.0808730427789
1820.2912807909267
2140.1793378689226
2204.713152669457
2432.969104862138
2394.416241182259
2500.818393523174
2362.186603283823
2379.2104478685346
2188.247218423242
2154.8050497468885
1943.3037370846143
1890.8599770893472
1686.3540369912955
1638.652047384645
1458.5755723896832
1416.1013413849303
1262.6691600212175
1224.9416447352066
1097.3869648397144
1065.5595543875509
965.6876236678382
942.0059867220789
875.1850799365137
872.584633898348
846.2524713117722
862.2159847939096
872.035763429024
896.3064909692032
936.6830050901809
953.1174737931359
1006.1396345169303
1001.0572483279973
1053.7777154046018
1023.9989598665318
1070.9734194056077
1012.070311020364
1061.3800932243173
978.978930701292
1032.326335414898
937.1689873171407
998.6746840234774
894.3088623162045
964.0927593594221
853.7259719460169
932.2236194838624
824.5299428032556
920.0782471459931
803.1022348856308
910.5968253760042
794.8157149405208
918.2585358979976
799.8451458637119
930.8422881529011
810.7452473861695
946.2087355108758
828.7044371816639
973.1081045571984
853.0265997726997
999.3301559259662
878.9412318590342
1021.3556250814676
899.6851638508994
1045.4631147512298
924.2730908751066
1071.596429670813
958.4504867783562
1123.6334298041527
1065.7290897382509
1305.9676277496656
1349.646026194964
1684.5057800875484
1800.3216092478362
2144.1831502403174
2225.1999228911222
2477.2645865752665
2452.488755815597
2581.0579301988796
2445.98743546684
2464.4621511210576
2271.9282478605974
2231.973280068732
2016.9123315800903
1957.0502225908033
1751.834197725359
1686.3219671909553
1503.187736348804
1443.093660450776
1290.6189185815956
1236.381963199846
1107.8479769706998
1054.615090048881
951.1792140892642
907.7649789401459
840.350648246849
815.0503648848695
792.120886428948
785.90388103832
805.5779679073551
815.0184679589959
865.95637586504
873.9145019340175
944.4011902209949
938.3817755324965
1009.9802577174615
976.2125675535234
1044.3887018172604
992.6700093066399
1059.7073030216582
974.7315485374214
1040.429723000486
942.803393747419
1012.5839124179026
903.6767631165362
987.7132441348791
875.8089562640527
968.5027350279472
849.6486008864036
953.8717580688939
838.8175378093848
951.6624539726231
830.7795577113731
952.2109073862865
831.1817624108696
957.6651771824177
832.1656062002223
965.3692188008968
837.5510347961156
975.0349437091733
852.6541275483871
987.0334580917028
860.8442239173033
997.4927537524281
875.8064744630218
1010.9138657477337
891.9047627535359
1037.2786299772172
959.3540435329907
1171.045778916397
1192.0631696819564
1498.361870310467
1609.3725072967375
1954.9527983004423
2066.2422662200797
2349.7938554753314
2371.8118257346264
2530.5361637669625
2438.5043084633426
2485.187785507279
2316.7131151824583
2292.776346848768
2089.050125903529
2030.0324834384621
1826.410205469109
1754.7602321952445
1575.3349123072344
1511.255365416104
1357.2470201141978
1294.208085125653
1161.9700216597869
1094.93781351755
989.0358403826018
932.1759379314419
860.0872434459858
819.0995936290516
786.4605201332361
760.5611389498167
769.7563568959034
768.2427714100995
813.2707098266791
812.8096506306092
877.1139360420707
872.0178794092864
947.690207437152
921.5026970141377
993.621638454495
945.8112409275648
1017.3200080226189
944.7238172612657
1012.9053340675647
925.56222023452
998.438986523442
895.7994087335674
976.1927111033506
866.6580207771601
954.7000618604118
844.3881402646589
941.8745676334543
828.1731084618198
932.7081561639807
811.699511942134
927.5965225879852
807.10767438499
928.885411843109
806.270564699698
929.7169219957
805.1179040130017
936.3771084287381
810.8251759512709
940.3338498092315
818.855244980484
955.3018557006013
831.3119149885838
970.2056123715096
871.5494234397578
1052.8422126246746
1033.5039647288004
1314.494009288423
1409.8802250337976
1776.2785652266246
1911.5410750105582
2255.8020077119927
2329.5399895654614
2559.615048153656
2513.8060662970984
2612.909620988203
2466.935427603247
2471.60353273119
2266.9707673609614
2221.6161713607808
2007.500883925269
1945.870856251982
1741.550878814736
1676.941697403515
1496.0676238616907
1433.3419409345481
1276.4826004206207
1216.0561234622498
1081.7940067944928
1024.3372191421456
925.1467118755565
880.0949202426227
820.0014154167872
793.3812035803268
778.187963961564
768.2079635152185
790.8219044937551
796.0081824866248
850.0775429675191
851.6507107961232
914.5082640850368
899.047117068792
965.0386280606995
923.0167113643028
988.8998237098972
924.9415334788777
988.205666770293
901.952468275885
968.6036267711091
871.2503872389725
938.5410405883839
835.0460467871918
915.0187367182124
806.162054289474
901.3938734144455
786.8249458552668
887.5129385880233
769.1797587389977
878.8499221846856
759.6098452082277
875.3141022920097
752.5716870084191
876.1396435211992
753.3957708420996
878.7348173554193
757.6487166830917
888.748204302373
764.4700719199758
899.2908553973061
786.8917596873165
950.6433556289915
907.0669394234759
1167.8737143145065
1238.9309933746315
1594.3992909829806
1725.6513228660758
2081.7507977668574
2168.378842055587
2423.1183291485772
2396.105490313602
2518.405337988445
2385.060789190759
2407.9501378637015
2215.605450755088
2185.444788201349
1964.3777140644218
1914.106611040365
1706.9959418096
1652.356078435707
1461.2584430748002
1409.579357956639
1241.8928016323562
1197.6464404708993
1053.6906395392443
1009.2943940179075
891.5963552427088
857.8989644143585
775.1835596249979
757.316408286301
719.2691556572568
717.4583723989949
722.0385875446798
729.664364405417
763.1675249178302
774.9457427460294
828.6712272418923
824.4844882509311
883.4712956944973
857.0252924678367
911.1509660524144
859.8527416316554
916.4329158729932
846.5694122283019
904.2719076487301
820.9038496466017
889.9279848282856
793.541325720898
868.1752157489
759.0092735744034
849.2795210396133
740.6062588036204
840.7749953139613
726.1137827822037
834.9620779175748
718.1210647509491
838.6224993974413
715.0335243163588
842.9131538354318
720.1175182038852
850.1206583485239
721.8995938783885
859.512165942142
729.1318695007972
870.4055327251308
743.4780131107717
890.8364800337787
771.6726731967291
945.5542918908416
894.1811924454205
1168.512660157281
1232.5550874599692
1603.0499660181488
1726.7959511168362
2098.4322814866955
2173.9293528864787
2442.258769928054
2399.585334975348
2537.7813098743686
2383.360987370604
2423.4411569061003
2208.2660399070846
2194.9828150107196
1957.539251793013
1921.1649105050967
1692.5738438673513
1655.1012644436553
1449.6068326207742
1417.1685960059388
1234.7902595420428
1207.639182395835
1045.8459756589245
1021.4602110107506
888.0595325119837
873.4527098063677
773.9282444605107
770.4060062025511
714.4598877942223
731.869935786945
716.4300318717451
744.4765191078887
755.9736502177017
782.0515529222216
811.2563820668798
826.5965529208187
863.6264474462482
856.5449026762788
895.0114807214895
867.8347282856951
900.024837805265
850.6267370524206
890.989730467214
827.632135825677
878.2545360479016
807.756653327429
862.2406262147143
777.0618858989432
844.5093541329738
753.7437074273333
830.2939109012765
731.7233999895016
820.1115117733532
720.6372929366593
824.4597058622927
719.2248969395151
827.7925067865747
717.2958302190058
836.8734589501418
727.4633173682333
852.5358051338544
736.5362665375901
865.0240760483873
750.8331365924837
882.1094580170065
766.7879581977127
907.3232475356446
809.2968558572362
991.2883177806775
970.11659133748
1254.6152764019973
1332.2747689545172
1696.89433969122
1816.3921776594862
2156.659934110142
2206.8879231246237
2442.051833223784
2377.702193438545
2494.1137023867896
2331.4387568472744
2358.9355713998584
2145.326793809181
2131.922462796811
1901.730135110318
1873.850355214903
1646.9004321421855
1614.8452124358873
1408.8594233415618
1376.2323404069548
1186.1275165623454
1164.7085841885723
1002.5967450955724
982.8264445461969
855.3573043346423
849.5427554685435
755.4647494214364
774.5945297771923
722.6025201936023
754.3205482898842
735.425874647584
775.8497001596367
782.255853592811
817.6609148178841
835.1563128698823
858.0389942164115
875.3404583137276
875.6646599676596
896.1330626780488
877.645496601641
900.0003877266581
861.57008290767
890.7579537422951
834.7940655013589
874.9159670232235
808.02915784892
858.1438255894612
784.8358520781386
847.3573181823773
764.6827788330487
840.0587541539004
753.1147378881433
839.821771795041
745.1300513475729
843.0694328282856
747.2405944729838
852.9537406417218
747.6575908232667
863.476167806541
753.9994847700302
875.5392727307353
768.7581298304001
897.6930381365269
783.7728451349527
913.2852685878896
798.2817652286824
936.6564692038397
826.32070825332
992.0506997082168
940.8768946422341
1194.3103671676645
1240.0380528637347
1585.8410995422528
1696.6816096708858
2047.473747337374
2109.491742123213
2368.6185250104245
2325.173912709109
2466.3968482604196
2317.7377397937157
2365.6175621139637
2157.608857806669
2148.4903679365707
1919.847197019779
1896.2204597820692
1666.2237946527202
1646.270568647459
1435.5350908415035
1412.959145252706
1221.1653656198673
1204.9587453005433
1033.9277456171117
1022.0671889245469
881.4962911878914
883.7471492508345
784.7754983605242
804.9453742016108
744.0585763839731
784.2897556146461
761.8527879660887
811.7539807196096
814.1961455450158
859.0450366199269
877.4484177121482
910.855298481442
929.1473731172617
934.0276174488357
953.0709158429373
936.9622536305769
956.7552246581614
917.7456766158623
937.5340706960866
885.1067336742007
917.6759431954395
849.5082829112167
897.2820554139456
824.0427225279179
883.3097613874078
799.2463867318221
869.3496668946595
781.7725132938357
866.6259887922355
770.9987862186792
870.1351385321198
769.8312182263084
880.0049489675974
773.2436543384824
887.8841035557809
777.9044270459801
899.2170945732131
781.4866327940518
911.0666502864507
795.0191855300308
928.154732161617
809.7684615648282
959.1507076874144
860.9410344601138
1056.586005165318
1039.522818085587
1340.4284087872252
1422.5244175920327
1793.3113263434627
1896.885196407816
2229.7674370364157
2256.967731128378
2479.503058193156
2384.5886020529424
2489.493539549766
2303.9598439256624
2330.6578787657154
2102.2984876941237
2088.259919930037
1849.8501938473528
1826.4414338111358
1594.5306472880718
1576.6772271020473
1367.5473417166388
1350.6983209849047
1164.3552597396051
1149.9677659671825
986.9555066976476
980.0909441721578
848.1735889539315
856.0212602218777
757.9769656301296
787.3868753006517
740.1162824361982
783.0467766024677
762.95037847035
808.9850334248138
816.4009830179643
862.2044063636621
878.7454156709451
900.8711977873434
917.8948707312775
917.5380925510187
935.4264097857551
907.4170152324238
924.6404603505216
879.4943505692686
906.1369823572278
847.4684231867941
882.2647667307695
814.4177566877111
865.0943403939689
785.2377769784761
850.9364538282028
766.8407095662229
844.0938762342814
753.5711616210673
844.1474840328426
746.47201613634
845.4276181591587
742.4143920866537
852.3288975961533
745.874553647695
866.2530610942564
755.0792393437401
879.6471270347458
763.0908275076158
892.3584292764112
774.1530002269316
908.2588736289038
795.005983776185
950.4764376069832
885.0211605324416
1124.4878168673881
1162.1946339788838
1513.0919720022725
1627.0454508614957
2000.2025784621023
2086.3275150144696
2380.1794232640077
2351.3392430903464
2517.7628445387813
2372.0478023221754
2434.9703495052586
2217.5882220983435
2222.3261154807924
1978.5713725509993
1953.2019877063606
1710.530530956279
1684.6209833457433
1459.1017276991338
1443.4009205039981
1238.6704484402221
1225.5452647282038
1044.5696848687703
1038.711024591672
881.2651854256432
885.6122624187838
765.003420089774
792.3160138327084
712.8536746866733
756.9790272418469
718.2472589498261
776.0531241122127
763.8654138640367
824.9159938544045
831.7174979300884
877.4591441924003
886.4899859746326
908.9762617363083
920.9796960711186
916.9787724200295
925.0467603036799
901.0311244880754
914.8805037069397
871.7301610231609
896.448750310794
839.9875723397759
874.3047942516095
811.929072171263
857.3858073000694
788.0463112581161
850.2426983785602
774.0256562030569
850.1837458568458
764.0495181804023
852.4812965987913
758.7588522232898
855.7053326901394
755.3280114509387
864.2209809961554
757.1841817738381
871.0897560498098
761.9697938981877
885.8804004822924
773.6395789711387
900.8849827282845
798.9940371964899
968.7054313604298
932.062123278057
1207.6624279945622
1275.1313780579426
1637.2038396704345
1756.0076670665105
2111.546460750899
2163.952529341561
2418.913129053625
2348.7925248953766
2475.518411096492
2294.213447691746
2335.330910979008
2100.98546061858
2095.7313264166773
1839.0742616540108
1822.857941304661
1574.2666666796795
1557.7442326945911
1333.1057677476444
1325.043617229471
1114.7940816356158
1114.002157155971
928.1415458555421
941.8351653947467
790.2993237348729
818.7533342965784
704.628062729955
756.0231860443529
682.8367683749997
757.8015640476156
723.1947305813733
805.8106161977629
791.7819171007184
868.2980044055444
866.7004863379568
921.8462617094322
918.0994524726558
945.1213845285782
937.9300443090112
941.2875753839015
939.3064110070341
922.9691001348914
923.5625998055637
894.4727460367462
908.680471324564
866.6402886428136
890.9389912100771
841.6137658500362
881.371813368631
825.2542707357718
878.348019325826
807.9019744980741
871.0247680974788
790.8824125627709
865.3620919610696
781.954468735259
868.2146261932947
776.5391749767365
875.5163175683691
776.7275120115809
891.8394100131562
805.4974967669483
968.099579310825
952.8398029977285
1225.4856360880717
1309.349801715161
1657.7007752960913
1764.745374664842
2091.1843063943843
2116.6889519255296
2336.3296092988
2238.6334426849794
2344.470129043323
2150.622696807162
2187.2366624459287
1940.2379615617408
1945.7006487932208
1685.3927135536908
1687.8287445833146
1432.171226683118
1439.9324296204104
1204.1371343488822
1221.692480475855
1000.3374076994628
1029.4327999057946
835.4926877501462
887.0783130293717
723.0522530801401
800.0649370828436
676.0722758778154
774.0369649957885
690.6403032398255
811.3565222607755
752.1658877509238
871.0487223885539
821.7806914428377
934.0577104185973
884.6726524817657
971.0737647931338
920.1824512799454
988.029664662774
931.6448896937
972.443489658184
920.1336489077262
946.1518192511819
901.8508965019496
914.0864962266389
883.889194370688
885.1998567046228
865.1053196093403
859.9362128410935
856.5235862847389
845.7311759811099
858.0018352990381
833.6488865058182
855.728097220348
823.3484983974224
859.7284285231506
813.1212571024464
864.129976297017
809.2046438703505
873.1310919184939
811.9916502300972
891.5259740454234
836.5879491091448
963.3305509120925
972.6773887032402
1217.8361207908974
1325.9602007140502
1665.987464723758
1811.3546026122951
2139.917644305407
2209.7566585751515
2438.2496197037976
2369.5371004990875
2477.4269897549398
2296.9749984496257
2326.8737460410916
2087.4965524316026
2085.5494736429673
1822.5651514202937
1817.3127117035933
1561.1068105231127
1567.0481008313625
1321.0460943280075
1337.5116030807922
1108.9185738487865
1148.1974125605636
929.406534284659
979.8016034309711
788.1075700495047
867.9748977364101
709.2049758264311
814.9083225513085
692.5567204122912
819.7989128283335
727.1647250384312
861.6808199732235
775.6938093156243
906.7341514863527
828.0603050875377
941.7887238261565
858.4238346312841
950.9181164013484
863.7742895393977
933.0125961898764
845.3258580318145
901.2014310611808
822.1639015917345
866.0695679560457
796.537653804808
831.0391130093446
774.6697256199457
801.9286555266856
761.6613448722886
784.0270983000743
756.8683468140025
770.6190167644858
762.2275798289353
768.1893634784375
769.2491093915743
765.2476855782506
782.6819296377113
765.2469791682698
794.3179854673767
767.2525882036184
814.3817183892744
776.7298000123379
836.3420293772879
792.5540705430859
876.4629919388464
859.5134000271378
1019.1460741049876
1090.73231767221
1369.4540010690446
1511.8377024812196
1832.909855339824
1950.9012818758188
2211.555643740372
2216.5262032671562
2356.008036047724
2238.3726895479135
2293.1315185389317
2095.013153677957
2098.169965780705
1862.3346086312615
1855.3614343187417
1606.9829697460907
1612.9530857488594
1377.716386845807
1399.0310374125843
1172.2458595236544
1208.6130367661085
993.1188049737943
1043.0863909564935
840.8795252172854
915.0387526534837
735.6092554619364
835.6385690032715
688.2289708296255
813.9278100233629
693.4115812837148
832.5172736299093
728.347402154892
873.0147064335669
778.5153730944172
920.1179953596876
822.0564128284336
937.2652457252229
834.9285435595889
939.4269635471805
835.7128632447325
924.7564470456687
828.662097676518
907.3273150762946
813.8939243361182
879.4824965631182
798.9562573139531
854.7257386463534
785.2605209667934
838.0939301718549
781.3516186912472
823.538491722583
782.2734896541657
817.3894862277054
789.5414479999574
818.2423541989132
804.9075001235628
819.2645510453486
815.331947057674
825.9999971611272
838.712501809863
833.1639312911431
856.5005964749879
839.0030855779687
877.9640628860333
856.0446949965861
904.9831708697453
869.9793551190497
933.8561960319051
907.4423286563489
1026.7893712031828
1065.0536239305577
1284.2133833181583
1393.0296750758382
1673.9033537260518
1787.0513626766474
2044.6368473643174
2078.9114263170154
2243.9555826060455
2161.585213871751
2238.810644029349
2075.7339753306082
2103.509257777546
1890.7339684088897
1900.7847132270833
1671.6534401602728
1692.118872380038
1466.7146402478268
1494.6353829678424
1277.0083582078676
1317.415110651461
1110.1200315861013
1164.5360641368711
966.8219628885711
1040.1069634899236
861.105846301387
960.44617619961
808.6152908012489
929.7973644788539
806.7991628011814
945.0849166297068
837.9852874097608
987.0666956508745
886.399277137579
1024.5204871021754
923.2681117484468
1045.1343402032148
942.8096772019005
1045.446509653557
940.1291936831661
1029.840437898668
923.6137346527922
1001.9223881924652
904.5427974465173
972.4981556000272
882.9980174081118
945.50283158799
871.7650849320885
923.5396746275251
863.5604242246529
911.103227314785
861.1570857353634
897.0663168178239
861.9809782563309
891.8960796941535
874.0407827004228
894.8832606781905
889.5038246977804
899.2557897909475
905.0074514595274
903.6610799942262
924.6872249445166
908.8875172141519
940.1572758026483
915.6668222165983
959.0530789546458
928.7869862820905
991.7343701086224
980.0062065200789
1112.7775722918154
1164.1880646696377
1385.007308991533
1493.416772218007
1760.0739749030502
1850.070184781123
2076.961631394536
2079.012951411862
2217.9963753764523
2122.7160688563017
2187.9276747362574
2019.9737381017567
2044.7124895395098
1837.8372566021749
1852.6134860547925
1634.2903339865827
1658.2251132337701
1448.8847035159158
1485.3683859305058
1277.08774573478
1325.3329363690416
1121.0087717120534
1178.7111086424736
987.585506813924
1063.365915106666
885.5268608973977
985.8761293468245
833.8198621704877
956.756150039022
826.8090303188807
966.0915963602902
857.0354010859907
998.5250978734526
893.6860942839637
1029.2541779402522
926.2499525774583
1043.4507800605297
933.0850381909243
1041.8715499167074
929.3419460177249
1017.6791375808197
911.0813019832592
988.0207893964333
887.4406213207768
962.105888993755
868.909849585139
929.6794466524686
856.251283860621
913.1421600862335
845.8220392450178
891.9874302175189
841.408071853156
883.117188945362
847.1705488716242
877.502040769919
855.7034468414812
880.1222929224881
866.5749206030357
883.7117828354693
890.2201202228313
896.6563089647254
914.5866552113597
904.8415343128024
937.4977454392302
921.8815424853482
960.6938773197699
931.9479953752176
984.929083602407
938.7784614024648
1005.7268704879539
951.856773048977
1025.2039458639215
971.2904037755508
1075.0914479919102
1051.6853015736044
1235.8118748440852
1289.4460337409669
1565.1593618155036
1663.7809451337737
1953.587075049818
2014.8977817501973
2247.401141883578
2209.3503176691474
2348.9269717117472
2215.5548958956465
2286.8985341709654
2093.3684786225167
2126.7941002590496
1904.6010319325048
1930.272587561067
1699.0789965040037
1728.781050051526
1504.8797840676505
1545.6332093360209
1331.8303258400813
1376.1633625421664
1164.0338601757094
1221.5076654753786
1029.8650629415774
1100.599149925695
926.6246761426746
1018.0804938476189
873.8088890181876
983.5672107727563
867.2864661884868
989.8432285055254
887.1454962141079
1007.273803284071
911.0846216469315
1022.8505712729777
929.1260022354195
1024.7013546159142
932.7184335190187
1012.1016576999948
919.2569124197094
981.4969309368604
897.830727353989
947.7687417613812
870.8050001199393
913.6406280169325
849.391377828175
878.772509644789
829.0673578201563
852.487925873863
820.1810923164118
830.3385189188606
810.0525410725123
812.4989820499641
807.0706838228583
801.9931033127903
814.0557361405719
802.2102967204701
828.8082002242303
805.1675541919359
847.0912829401171
814.5993603163798
868.5356340107625
825.9671715152032
891.645808435913
843.8300277901045
919.3388709994098
860.0542438695398
945.4684126525173
875.975488629527
970.5061312948568
891.0876449960914
992.8547770235011
904.3417064601534
1014.7699785747751
920.197197936507
1039.4910441894672
949.9606318620192
1109.027812598535
1072.7147082424517
1319.4923480127654
1360.4594202638016
1675.4424388910788
1745.135270700046
2055.4330081205367
2067.7596715627237
2292.924908691449
2208.5853468829537
2340.6587937547756
2175.2305205555913
2243.6758446894673
2031.8886095604962
2067.718726701612
1836.3986164374953
1862.6673976935476
1632.748327409972
1657.1534583407665
1442.7667345453685
1471.4263301958865
1267.1958146343547
1299.2401783029754
1112.8796243873512
1152.2750149551105
990.2189062626028
1040.4761558894106
899.5380592708913
965.5678827641859
868.6039523070589
952.1064196037519
881.2339908155702
967.3692245407227
913.5043939654538
988.2018967510069
944.0105134650036
1007.9825598996188
966.7046805037122
1006.0780299089473
964.8507421499085
985.6030136815295
946.4617107950783
945.5422802370167
923.1800462792268
910.5621875496596
895.0294802868023
871.7125259352512
870.9153865163803
839.3826726317749
856.6958486623772
815.540000765677
845.428592204371
799.5386247953561
841.4808592396537
792.9631944134572
853.5508282347097
787.3514983873822
859.3750438339003
791.7329848891679
874.4313474623906
794.1142729847724
890.4947734802128
806.755019250225
914.9797536444374
827.4075740550936
942.2189840095418
848.0025803225263
970.7319209417674
870.2225761669006
999.4045820301743
894.0121762481866
1028.6708615571183
914.8416509362422
1048.7619750439235
927.6054346327495
1067.4746345313993
947.5253799752483
1091.4428009532987
987.8529436526093
1168.147238251996
1126.6721121856283
1389.7991095633924
1432.2201669479462
1751.7663300585596
1820.0098825828272
2113.326155058611
2119.20411421976
2321.753960112383
2235.5374978606696
2336.9637852262927
2173.4279947794457
2209.567995344148
2011.2802038395148
2009.2539248922867
1799.002259106522
1783.9715746524423
1586.5547730496683
1570.0667798090774
1390.743722503685
1373.950403240903
1217.4363431528172
1203.7383993681744
1067.3159819535845
1057.0058737948154
951.4358376446302
953.794467237832
883.9934441201445
900.1408778959108
867.640222402748
897.6213433611214
899.5830511599011
934.9114114366477
953.3793977591196
974.9166071579746
999.8861559726748
1000.3784691467004
1029.6816541799988
1003.0785600932369
1029.116469903055
979.8823890607711
1010.7305051041687
944.9572752538708
987.0777063385955
907.9512844487846
956.1396255354975
871.937757513836
932.1314317489021
839.943088127197
914.6402831913617
816.2519391072417
898.9204887158903
796.6184151331745
894.4421938133016
787.0064426390879
897.027758488466
787.0144101053407
907.2869183082753
791.9612396253407
915.8797026889582
802.0855387229981
934.1975400080248
820.1942372614656
959.3147035681789
839.1101785515754
985.3724287419525
866.8724528797295
1010.9594495130175
892.0962451125258
1034.1295858246278
916.6672461033538
1056.4296725295162
938.1949413195435
1074.5272284904001
957.5470983959035
1089.750752757169
989.6475951681488
1138.855228437598
1089.4887803053875
1305.071164272109
1350.0584159103948
1645.4493668458235
1752.0161012143644
2048.983854445272
2132.5658767679683
2347.9084591970504
2345.5275147529833
2446.4370815200305
2352.1733068833983
2360.7151952704403
2216.6090643668194
2164.0726933217907
2000.7406280586326
1928.4523471574623
1773.8175904131863
1692.683257854101
1560.5098642872501
1478.0654466223868
1369.383319078095
1287.9896129956967
1202.631582278545
1115.4489399268691
1054.0504299391146
978.5184008045327
953.2038529005779
889.9644896521934
900.3624153208643
853.4016774730444
901.0863849797487
865.5662143754441
945.3011924702017
903.3187886307851
995.4499456224914
941.3356838031885
1034.7374188344259
959.5888191220448
1049.7363146723303
954.9291986435966
1051.5857757628096
938.3565684110936
1030.7192862918266
904.7446196494366
998.7553290054643
866.653313079775
967.587291406852
831.2558919598033
944.4316197584591
805.7132740258558
923.3923298246685
786.153248808964
909.4790907744239
773.6954562993959
905.6077120892026
772.0382643733926
900.2906163461545
773.5530617760124
906.9423463408286
785.1840491871242
918.6721286933283
799.9926902539175
929.41048653686
817.8154622038186
943.8959405727657
844.2434300947725
970.1857194328005
876.8946800299643
997.0710674096019
911.0839292946907
1022.0913005407025
941.9742535144346
1045.8624829827581
970.1760037033663
1059.299886402185
996.9231988840115
1077.4891164229052
1023.3423984056697
1100.839784315475
1082.831719940582
1194.1699021712204
1263.3195836108337
1459.3890193400641
1635.7011472299737
1881.5908080334514
2078.604363772899
2272.5719882954763
2402.509976285031
2480.318107469974
2510.005499197638
2467.6796556788336
2423.616818338845
2301.2805236162158
2215.070720030355
2054.025593303667
1970.9107772336654
1794.9380807135576
1730.983406857253
1552.9891810032752
1506.9681674317221
1336.574183951305
1312.7179171718444
1141.074208751723
1143.6310161840008
979.9158004088318
1010.7121088773129
863.1984031713981
928.7214151418342
801.932340905539
906.5608801416591
799.6007855983037
929.5132889821049
836.5735936258392
987.9451762260771
891.7591800404689
1042.3915814886525
932.1851776227628
1075.0514913442748
951.0246286680527
1083.594721421187
946.6589331013246
1067.8132168049324
923.716216160136
1035.5418274781607
888.3554284173434
1000.6306767242042
854.2800990049492
963.3914778796263
824.8084599277154
932.6727082128272
799.2598048396678
910.1971007834836
790.6129065586429
894.6566605755601
782.1786071060095
889.5601384710446
788.7269115079669
887.4990548475943
797.5883843318562
887.1143603620548
810.5454058473186
899.515729301384
835.226507370592
913.247684485108
858.2796707035237
931.2622278000454
896.6044615125127
956.0403089265608
931.3199288332355
983.6823398172761
965.5978771663582
1003.4457289594396
995.5131976405834
1018.607879599954
1023.5887368620703
1035.8241797099806
1053.8162946591046
1055.1856426802326
1085.867537222944
1094.365823526369
1181.68120942079
1255.3475088133541
1456.8130018963159
1613.0404143913163
1899.7983023004626
2066.7905414563197
2332.2400268871625
2418.152329767228
2580.2807797037167
2530.4174433952617
2591.4815982739533
2433.9901068208915
2425.6279551277694
2209.4445473895544
2180.9586177485758
1936.1531015733262
1909.0516066849561
1667.5732181440735
1656.5021424057059
1418.1271745418874
1429.486018567718
1204.168608969327
1231.1575048130364
1019.3821571331289
1072.1123916284726
878.9952890110544
959.1742698088392
796.9472901818474
912.2228731839468
777.5033187619514
923.8557936675708
818.5923341642747
981.3043192875102
887.0182026124855
1045.814335605579
953.0957766751509
1104.0711488059655
999.53927758703
1127.3695528003495
1008.89580830381
1113.850097962477
991.3894132755096
1080.6243437334651
958.265015496722
1037.2678968385535
922.9673145900479
993.1815939750546
890.299742646228
951.9673643667053
862.9671740403166
921.2231394638819
844.0417423682246
897.1229141989876
838.8501629940681
888.8119598069522
843.9388947992724
882.492143118853
853.7470834633444
886.0088909736957
873.3375021699416
889.3268948642038
892.904312627303
902.1502705244365
917.366260760254
917.7188160388903
947.4460530789654
931.3877780323918
971.1333940893489
944.5694546041302
998.2778768606785
961.5412597310179
1024.461425511774
981.4063289296263
1080.951463907517
1069.2688376744773
1259.1684731714734
1347.0573512091757
1644.726087388874
1798.087174896051
2132.573886210594
2241.4829716948598
2503.4863089030605
2496.091274907068
2645.244930449076
2512.6971294294076
2563.944770699381
2344.71725612148
2346.3156739253723
2088.7355704261363
2074.370390806807
1807.340712700792
1798.6786343946055
1543.457019570631
1553.8727468950715
1310.2359238516703
1337.5673161242646
1108.0230037924562
1148.5131296530074
936.8562283105446
993.6255771749894
811.0082604406975
895.1346246833019
744.2040624599452
860.2358819227316
751.7922608395212
886.9623929995798
803.2317998962517
944.1512573823953
873.3073872398401
1006.3928718166213
934.0055117773711
1045.1123161609953
966.7329357785894
1054.0272902762426
969.3029378743107
1040.040120967464
954.1847123634609
1003.9910597435637
928.6108709516486
964.9368968313266
900.4385269839522
922.830214464302
874.5226387198301
889.7508738416788
857.5239693209468
867.0776905619177
845.1749244887578
850.3966218004562
853.0494010471822
841.9571615085653
854.6971582175537
837.041420630817
867.8813485945466
840.0005643710609
884.7591386933484
849.0056453544387
908.9009751949719
857.5680269825051
931.0710147208733
873.7268018745033
957.0789452484183
890.0217040958353
986.521895578311
910.6303324870526
1012.2029265673309
926.2668260907814
1052.4884228759656
999.9784487464128
1199.9137193506308
1242.25560304297
1561.9872643777442
1688.1998119919608
2067.274253660196
2179.5887677418696
2495.534283799119
2499.0081886870717
2687.258056145603
2555.776545926142
2634.055005020832
2409.7031761241014
2416.54898805895
2149.0614658152003
2136.729082798021
1861.152900339353
1852.2314419203246
1589.8797570789627
1586.3452349875363
1344.9660733641963
1357.1610444693135
1132.7454789596256
1154.9749017645331
955.2937364569798
992.4809845193946
821.0197817950777
875.9834976696756
745.0761097460165
827.9441114744782
736.013401010066
836.8955670317923
781.7103787091208
891.1081651399141
849.3284006059147
951.5681505550483
923.0784880646335
996.9188735526378
961.482612885955
1011.1582304047579
975.7517422454537
997.2046705204381
963.5939452851275
965.8018353100608
940.6849435766914
927.5453064110982
910.3261490758713
887.6148277721071
889.0799608767356
854.7082748814348
869.1442066229652
822.3959819686681
854.1250747737259
802.2833283605394
848.8538592863092
791.2960506218984
853.188258764707
783.8528299477574
862.9359002235045
787.0710835715455
876.3596151451733
797.0613983267291
899.7276261614853
809.5576691227955
924.3850084503382
827.4952634955031
949.6200720116382
849.6551421393025
975.4369783356211
869.3303965430639
1001.4775194239712
890.9603971508099
1033.0109770217782
938.4789524462423
1130.2618352244176
1118.5258365249624
1421.6188807913331
1521.1072276986456
1909.366848127888
2038.095863689901
2394.34220724746
2442.556503777071
2684.962870021969
2596.405921416705
2701.3123293857325
2506.029386220177
2523.3860890441374
2272.3677594181536
2246.8408816316673
1981.3659397060399
1940.150448562614
1690.683747329146
1653.326171040172
1430.5732622106048
1402.5144195125085
1200.9464233562157
1185.6115151923937
1009.6190485145371
1007.8638648180298
863.0730943006829
876.351388678388
782.1920417922805
817.4022752774166
769.3619237098668
829.7950165499749
824.2222682536134
892.4843932579489
906.8003997097462
966.5050013375247
985.6352002203329
1015.7777039732157
1032.879835503634
1031.5339411733755
1043.27958595773
1015.7406897222289
1027.1208250653401
973.0858430242663
994.1391563676575
923.3268707101946
951.4109044344547
872.8461057504823
913.7868994000886
825.7274446089968
886.1267081770397
796.6593051010205
871.2085671048891
775.2803021772081
862.9128751284934
762.4153922790182
864.7033411727059
759.0474966264748
871.6668726756926
760.2335544011161
881.6563310973137
769.2447508949019
901.0934962374786
785.08425730031
919.5703648622155
800.4000395950056
941.7798916425248
824.5788881448397
966.9015246310622
847.7776122328647
996.552813664945
908.5319230266101
1126.536969043267
1135.690980563406
1468.6299021805519
1590.742724587536
1983.9370708964002
2112.6825825508286
2445.911297127079
2476.5122329572764
2673.3210674495845
2574.9668211685685
2643.269583945433
2448.6902346521633
2433.9637795402496
2195.53571313604
2143.004649987066
1902.457606344871
1841.5317432165546
1617.7151441440835
1561.7093089146558
1366.594640386242
1316.7672093518293
1147.7295235134288
1095.442353890683
956.6818054690782
919.899941420563
818.9534714414555
802.3412027188892
748.391653010232
752.5921952215863
742.0889968109257
765.847244443552
798.4741195748279
827.3685188714808
879.0716659676862
896.3298339653652
950.6289164228951
938.8749046929322
989.0644770376107
942.897245070661
994.9458679841963
922.2459102233485
969.5511431019542
878.2376485324362
934.4448822803031
833.473397156964
895.3325323589291
785.0772582731125
865.713149562563
749.3628856556074
841.2803524436398
726.8064130034945
827.5315893891133
710.6671332536688
822.7607436658573
705.8481696660654
828.317007302561
709.607707357654
842.5647080767188
719.9427408814911
857.8512482120381
738.8545132849594
879.8364411149794
757.0555950526184
905.0545898976675
787.5349180089345
927.4037432523556
811.9593003813139
948.5073780542454
832.2091480628628
967.2068703110709
858.8734806443373
1018.515158400207
969.9725092263615
1204.9942382964819
1282.3073534128648
1637.6891060742753
1804.4660194131477
2181.8752613810543
2319.385679524952
2591.1683685581334
2604.337420784657
2721.6062234731658
2609.2050063407255
2601.0696382984684
2408.00897571281
2326.8708879861765
2115.098975885698
2014.4854637316048
1808.7045598374364
1707.3584479359483
1532.1444140724388
1432.1388542622992
1284.022824226329
1192.8176339195268
1074.0789715974504
989.660035399315
901.5554613327174
823.1065920382097
778.5704652681666
718.6812121960419
716.4058835966089
677.091346430221
721.8576687498555
698.1279543186178
771.4950224743824
748.0668170848919
836.1576177270898
790.1671802536895
874.0374346973333
803.9487592761615
882.2271028962434
788.3817473476877
869.5788041187479
761.0451087006155
846.0648248714735
722.683911364374
809.4623954272253
677.2706117385212
778.0782353979954
650.8514202239527
758.1525352842261
626.7649762976964
743.6483119848981
614.7054754183619
743.1770413988921
611.242313324836
750.6770416401588
627.7533047701164
767.7548448844142
642.131370272618
784.8726834382485
663.4320466638139
805.640387068748
686.290991519431
829.345435152734
718.135132536386
860.0342808875162
750.7562320460322
888.0365926574747
785.0468087420664
911.7269606616076
812.7527320519032
936.5911057776493
846.0450955331952
960.4661457902666
875.4000122891546
982.4877175898434
903.5337101305023
1008.6018220391891
956.757024118144
1093.3109930661938
1135.1184029571243
1373.5097725088413
1547.6569112681673
1863.9334786241732
2086.824808515822
2375.425546383312
2533.83928226149
2684.9448321071445
2707.719141214845
2710.0573234121885
2626.817754226333
2519.1290577031605
2382.5683580651357
2219.2720841163555
2071.194202917133
1888.646699739475
1757.5802330892632
1573.0413521947846
1464.653823894113
1289.1613758513924
1217.6184783973401
1043.4561013273342
996.2926417349527
831.2379554478917
820.456038568726
675.2833986994993
706.1284769891575
591.2762526725359
672.9079256161775
587.3602366553087
712.8369993765056
639.7554272129311
789.0461648471577
720.2251402297967
877.2196555075219
792.3980757887873
943.0197566616906
835.8983875196759
974.8316253497941
856.8782684918607
991.9456868676515
852.6664559641174
978.5749319170507
838.1480802411385
961.74899211157
813.544357273444
938.458367305177
794.0649742585849
920.0870736560811
781.0353348823725
908.2976352990138
777.5702082210422
904.9823153628652
782.5041788974049
906.7451378288349
793.9033309098378
916.927936883565
810.3496127731586
925.3100903339181
829.2256595331497
943.5661560970336
864.3910280352683
969.5482513469041
898.433458252956
994.7731130538341
935.027470711896
1022.44906282401
969.9301854279886
1042.6645400618747
1000.9445605735527
1056.430298659574
1025.735720613762
1065.987130889446
1047.9666035200783
1078.2158264773043
1088.847134372134
1147.1492035023855
1246.7516166208543
1404.3956572976927
1635.2658163513167
1877.1849822020554
2167.616868313718
2380.871310617845
2609.886571558803
2688.9137839410573
2786.5379710358357
2715.495101788876
2703.4708113209986
2527.378470709447
2458.210218726505
2226.792462431847
2145.7742261167905
1902.5465765271715
1841.2197245567
1600.0396403646184
1564.2539894120314
1331.9220450367652
1322.3290090635069
1100.9615492948878
1111.3746011669282
901.9424185774933
946.6950917203177
764.464837173126
845.341332205329
698.5700364279966
824.0122093178662
707.8375637323596
868.4327729999239
765.8793052054091
938.324082684377
844.1808203468497
1010.2973527345653
903.8638313605037
1052.1020296998067
923.5170473821191
1050.61675950641
911.1024896606712
1019.7769449103696
877.1828791012185
976.2203171479329
832.6470540445174
923.4875320750497
788.4502081084441
875.8081740524534
752.0126737298266
836.2930149571027
725.6300148744048
809.2200768699371
713.0398349200318
792.7191601974815
712.7058672576727
782.8777791882975
713.565941542866
778.9337958328674
731.7394158092794
791.7798565942683
754.5725761691677
803.9730713948072
781.9173845177363
821.9814320769809
817.214121461997
848.0451031407839
854.2247092471042
873.0135241287395
889.8981072923932
897.3382269404793
925.863003042292
920.0237839637394
955.531251495366
936.4882627523843
999.7571203346313
1001.0333540480838
1146.128225765235
1253.2833689145905
1539.1573999636737
1745.3612789078718
2103.4813632967684
2296.5053097551163
2596.8470159278095
2657.523375461809
2814.989042996353
2715.281780710433
2754.045846163935
2542.41277786668
2510.6124077280915
2245.874226864677
2193.295319200007
1915.8246590293436
1875.7797741454478
1605.3449851966063
1587.9064408139932
1333.110013406157
1342.1775621043016
1102.0035690731859
1132.3188933374602
901.2032639806516
948.7614420820848
738.7497081727049
817.3091494145225
653.6478699676466
768.6263379658407
631.21700947165
774.8075068686433
670.5825862337358
833.5380012905391
743.6751296507114
898.4161070835685
806.9568050580446
948.0560109593905
848.2774161213671
961.7519332569136
850.6775795966406
942.8673020807814
829.3633324134919
905.4121022962073
797.6394587080028
859.6910119814344
755.5427134538962
812.3714677677754
726.766842634061
772.2271784548458
702.8981179222374
743.8485868310954
691.0123978758671
723.3920451997059
689.9158010606036
718.4619658966467
701.1620975650148
719.007602288063
716.8590465595031
725.3196910896414
743.2027248295144
738.7885623146134
772.8809192990749
761.6650825681204
804.6633470778979
787.4846601730382
847.2059174036448
814.0212488489778
883.7649995653805
839.0928364894077
921.4303446238813
866.5246369121386
958.2315353521308
888.1771753908133
991.9365404152692
912.0198388910693
1028.8579570269023
965.4621919702796
1149.5177992352023
1177.892510574415
1501.8317074579898
1650.7547022461936
2055.887747454517
2216.253537360428
2572.491082543061
2614.928472222534
2826.716393437297
2707.709874490572
2779.1413721857057
2541.0111737072643
2532.323315712607
2237.29846169557
2200.845593784339
1895.612005816517
1861.427850498967
1572.4474978430633
1561.518627007379
1298.7828268313908
1302.0267909232282
1063.4845903351213
1086.9682083529503
872.6134205702417
909.5289991206657
722.3073033932031
782.7489671125737
635.2734304347005
723.8500500869413
614.8352006199422
726.3433863168876
656.1191978097646
779.1620125822693
729.2630867356118
850.2316823705158
803.2377834347467
904.483847163821
856.6339424059404
928.8319366426244
875.6805903715295
921.1469272926472
865.7371397577976
890.4037602155437
841.7028544500894
846.5361098555419
807.3246017409124
799.576976519015
774.1718966297495
760.0638100075432
755.0460088018065
733.3851825164677
745.8884564544801
714.7540371053336
747.5834128270237
706.0532495345473
750.8018680840379
705.8872432693964
763.6300320505784
712.7030714189891
788.971174085097
730.2220657443451
817.1527308892012
746.3165385492915
849.8933606086778
774.6481999469723
887.5297084717158
805.4767770849489
925.0988173060334
835.6610281411707
961.7298053985111
863.4746029180405
992.3308096724265
884.4930932069656
1022.5385093568851
914.4815681086665
1074.5185689960429
1002.7479885749215
1240.4846583511196
1282.8793869771973
1641.235801829504
1778.3382538393457
2179.132528037569
2292.64633144469
2617.685095106399
2610.7849695266
2797.978387544202
2651.787030676595
2712.9655957611535
2473.793189510681
2461.652913582325
2186.1611506661266
2147.3258105789214
1863.6902243242419
1828.4781809326814
1566.5519522819686
1534.212789817653
1297.8199966635802
1279.6386901980868
1073.2913103876183
1066.6623148715635
887.9714597841186
893.3489432555405
754.9713225503898
784.3929130459096
695.2530010081214
757.5551826991149
721.2452346754291
806.2762219709434
803.7090933551591
887.9538163977892
899.7966431110896
964.1052351690593
973.7525430470959
1008.624820801785
1014.2598640249483
1016.5550888762094
1017.4908429886837
989.0891341932366
990.2004623217776
936.7029891160448
942.3128394580448
882.3558288467973
902.3843604306767
828.0193012972173
867.1623290684187
790.7928157083522
842.4667100018547
760.9972014503842
834.4707339521021
747.8732344351844
835.1442618576825
740.751279723679
841.4994447909439
743.3743217306262
853.4752541954042
750.0623396733577
874.4826980147892
770.150976653761
896.5939030135315
783.4354683139884
919.0789668019505
804.048161506696
948.3781657043888
834.0454554909055
977.3775587883737
877.0625325565682
1065.6376249630266
1039.4551919655592
1337.6874875726726
1422.3683437118336
1810.1063551864281
1939.460762513858
2308.810053439747
2367.8845163963388
2617.8445784158876
2539.3374747453317
2650.7536733139514
2461.567649179266
2474.03021168576
2223.235331757922
2190.6865824090155
1931.3734080755044
1886.0305207435351
1641.5472943746227
1604.0674676412295
1385.6078354162046
1359.037806938889
1159.1155025822682
1140.4243746216812
968.055373541212
952.6335554689988
816.8045372478583
822.8700233795824
731.1534029444354
761.8023303073102
716.8476085192583
774.0210813009093
768.9751349011109
827.8118818273329
846.8227315042676
899.5494329666327
923.0581421860006
949.3003573923601
963.6755653915077
960.2564612170557
972.95305186225
935.6693028130524
954.3710959414601
897.6308399109058
922.1250377086333
849.8314735049706
882.4872002645268
798.2409467489622
844.3093915730329
754.4923787490408
816.2083998741113
724.6852670711685
807.2811177334959
713.9955593771733
815.4049761163725
716.2959811521517
824.8838073682314
721.752477285743
845.4954517990078
736.6875826188704
861.7358960066856
741.7321176722392
871.4151436252367
749.1548092770813
887.2541953124022
765.4446667314262
915.7635672449275
817.1658436336621
1021.1011703392777
1014.3371991667485
1339.8339404304534
1441.6245744625605
1842.9885139024618
1970.458119216762
2332.8810361849264
2370.714070782069
2603.881748398449
2502.4520247434084
2600.3624788204756
2388.919596026696
2396.0185006173847
2139.702726812747
2100.5443709055085
1834.296764678335
1796.2517583580898
1550.689615476308
1521.9887292586375
1305.1499646426269
1285.1217733896594
1092.355589719306
1081.0411388717862
915.4676329013233
907.9254302344249
768.08077370892
776.6571088730052
685.1971763633164
714.5379983899487
671.2918253311113
716.1053895552357
706.4867359764081
760.9922804862869
782.9358375728376
829.6529833278528
855.7475327351937
877.6808485354783
906.7549593644158
894.0400775984506
920.9198662549699
884.3430622525874
902.1309342079348
842.7315232403412
876.4263922017134
803.0509177706051
839.6937069686402
752.2436904957178
802.9686616560697
714.8096665454059
785.1278168776787
691.479091895185
774.0314955120328
670.3789691729394
773.2412635380821
670.9024458031868
779.5712169995437
670.1108602287009
792.5447382415672
679.1226806041392
809.9189570079294
692.4166539830837
828.0443794168067
711.0847760591184
850.9144239769015
738.6678164527393
913.8792847803387
856.7103275446176
1121.6624656289878
1169.5294536750832
1533.3399701174478
1642.7472141677122
2013.3725695985522
2073.469139684474
2345.17210772313
2286.2708141514695
2427.385930572888
2259.902839178275
2309.311553148728
2083.555933784136
2083.835537985713
1832.9205699478218
1816.0546515006858
1579.2749673272706
1569.2680320955037
1353.9619442559556
1353.368853862951
1163.7341568833915
1169.9361153986838
999.4599136730105
997.4684685774246
858.1139838107929
870.8018080674276
758.6112124650705
786.6634982362087
719.2832782102539
769.8370682810441
740.1956000099595
797.6335359732824
796.4724018202963
848.0489794497033
860.0625596678615
898.0434370283978
915.2891228888677
922.4719130042462
937.6194916596028
922.6477208209498
934.5531295384186
893.7749772656888
914.6089331634236
859.9864724975401
894.4237083085326
826.803164704164
874.9331282695433
799.2373306190418
863.3742603414934
776.6278454909722
853.5708875660689
763.5789488101066
846.6668345979073
749.8468582152365
847.7954880071618
745.8745430901415
858.9096514526609
747.0447006813381
864.0054068607194
749.9953753563801
880.4134616313559
764.2769168455534
901.1497613230558
787.8203704434554
959.8110112256229
904.997349598638
1168.4194018357148
1209.86973901942
1561.5688867995825
1650.5175348721841
1997.1209571553352
2037.8743280787514
2282.348678320611
2199.0374279424814
2327.111189108353
2147.9297897776128
2194.771079987452
1965.839172346075
1975.961946380534
1726.2588622818525
1728.6337021525758
1500.7298760268438
1503.497557418554
1293.0577561023135
1308.2769163779822
1118.2572027613771
1132.5819772380169
965.2886551245118
988.1334188921627
846.4604311808002
878.6622961180848
773.2367422968318
823.9704435547636
756.0899567895945
821.4429686214997
788.0300429996902
858.1370347855662
849.8156335449379
910.6745200925707
905.5622318874562
943.8797313230527
942.6073397779899
953.1673367760486
954.8574428118626
941.9156010600549
943.5603287162463
910.4222239512629
924.8974819437219
874.0193404231474
899.2570183623276
837.5573817264814
874.4996075370302
808.256491367629
861.0058696743941
781.5409873843123
852.3543006883597
767.8732781887433
853.0401671709582
763.8295953848852
859.5079945946728
762.5515144847876
871.4082725020332
768.3382806445495
886.4385165311081
775.3754111736905
900.8329344823336
785.8547535670567
920.6860351832939
803.4829217299259
937.5726426549533
821.7660312611278
972.639105031107
886.6751291485764
1110.6075535840178
1099.3782475246453
1415.2524123341789
1493.1640413363739
1844.3545542937322
1908.5472705051452
2195.635744879277
2161.0112468328407
2332.7501327623027
2186.9453507187372
2263.943521953355
2053.74619560482
2073.286939506805
1837.8563903153367
1842.004523398964
1609.2594925832896
1607.6628584974296
1391.9236092917658
1402.6535301991764
1206.58422662287
1219.24034309983
1048.43324066679
1062.6307414261937
914.8026929109167
938.7525375674464
822.6388803060308
859.5144196699839
773.5093316980935
827.5780472742323
785.3002494230694
847.5006667510265
830.6461104026164
885.3314566278785
881.0627540061519
922.2486589029338
919.6752882589597
937.9205740934827
940.0786660227692
938.1885023493201
942.3710443542287
910.6518331324265
921.6164453799091
874.1446112674033
894.5834346979935
841.9648941347181
874.5521721281885
809.5287467869169
854.632609882837
781.2051129280004
840.2970157533895
762.3825873756562
836.957605270101
753.114727184437
839.3127509814112
747.1542844310618
849.1031045584314
750.2038415778507
859.0599927319407
756.4300885489567
877.0354948692893
772.8546561408609
901.6301720615342
794.3933034095351
931.9205213932253
818.0421554973273
957.5477127796261
839.2235063024115
981.8326279687677
862.4172617647172
1008.7764106963904
882.4468731876909
1028.0947217908654
904.5169141823606
1050.616605625844
934.4251371413155
1102.6842992173733
1036.077094356408
1280.076695621417
1311.3526552115138
1640.607595726263
1725.2096252879708
2049.8820493367643
2090.8517067292046
2324.646854624785
2266.993785802931
2385.7145591739272
2239.3086433382955
2273.1499447881783
2078.100211633658
2074.8293148835382
1862.6621611556977
1840.2929176330442
1643.1580237261883
1619.8979909146249
1448.2782831415
1425.3143180589311
1271.8838412262544
1251.5917037122213
1121.129058797942
1102.4502737532111
997.7705257789769
982.742732999659
917.8306631132868
918.1416459024186
891.8388962124191
908.9108529696567
912.4784776230048
932.1547684819377
958.1846527507059
969.1236147310083
1005.60960205052
995.2631571156342
1029.698984041665
996.5545455998431
1034.1306611496484
973.5001020685661
1011.7168913008079
932.4099347193596
978.499898846598
890.2352637291347
942.8483007800014
844.7710336814438
913.568726752342
806.8744912828746
887.0917952505074
779.0329143668871
873.6900834005072
760.0393976630603
863.6193260964709
749.5918531748939
864.6536166640593
746.5873088781196
871.2215929706135
750.566474285188
883.8116226425951
761.0216179960316
900.8460433095373
776.715847861212
921.9245627357647
797.5712744684351
942.1163453723124
820.3843364427331
968.9741040852775
843.8647327872652
986.7817118607383
864.0722723962605
1005.7361952865347
885.2666024789521
1029.3983233481395
937.0475696956521
1129.3388504019795
1114.3915857257268
1387.6975612345216
1460.3651210772102
1780.0606440472995
1872.0899388983025
2151.4435501090643
2173.6799637132463
2342.6273369039986
2266.9682624600196
2334.478248916487
2189.0363276796165
2184.4410148972656
2007.2929171779751
1967.138005440608
1791.6534440961163
1737.3123442915557
1574.8815221705574
1519.7472575173877
1381.4185641950817
1329.077415373575
1209.3692403873486
1154.067779655156
1057.5128907372887
1006.857588927155
939.1415831627262
902.3841447007114
872.3844308417567
843.634229846149
857.7584884441113
843.8868230448597
890.3619539998477
874.2036883847466
939.2697560481283
913.1913875535763
984.8172858232288
936.776518180684
1003.259040426944
928.6224589692868
999.0007707825233
906.8891622565212
974.948541508432
869.7044768732119
943.864768840836
826.7015092484272
910.8628345393539
790.3469417406775
881.8926186746025
757.6749840329284
866.5044352689961
736.1197486583014
859.1160564349412
722.7944655296551
848.9996490657988
718.7296864498284
848.8390757291191
719.5389871156647
858.7619634676656
730.4682392488785
873.2609726794717
743.6686253265245
893.7959288822353
775.8587491540231
922.6892929975085
799.0885973832342
950.7559029428046
832.1064853254808
976.4402433679755
862.6094373753792
999.688163932596
884.6069899569181
1022.0744047456749
914.7618519193937
1041.6329463466943
940.4866916837002
1069.8136098838218
1007.1552352648415
1184.639612246323
1219.3462054308914
1491.7678377310535
1617.2643920675666
1926.7132760896834
2065.3423996074794
2308.9444326046014
2358.9593585378952
2476.222826610384
2416.432637632919
2420.8037085645824
2291.6236804283435
2224.5390528524144
2067.010080804593
1967.6035017110137
1810.7655787358267
1700.681196878201
1566.961935281256
1462.9351731741167
1361.2913830554617
1256.209708691959
1179.199978928455
1079.919726001497
1024.5934013914778
929.3580597486684
912.6942114147329
833.6387329610437
854.0184451519838
793.3338869138414
851.9389560353635
801.8575024197966
889.4355029368415
843.7586858038727
945.9701005653104
891.2039119933071
996.8088367125785
917.4471215364201
1017.2436498706453
919.7894609952635
1016.3176134646158
895.1828240138324
990.4075615890108
860.0336065594736
959.0213462637939
818.54832296375
921.7925137749469
778.9621743875643
890.3415175107231
745.067823154559
866.2153568464693
724.4043175578391
850.2707652899805
712.4617594070928
849.2604649149927
711.7393948967587
845.5557266273003
714.1447786745453
852.5529184851973
728.5082826277886
865.3692436592593
742.4655650409288
879.9747557625559
768.6616844018193
905.8813758957725
795.0028791390889
926.4342076931595
830.2818559673099
959.9523137889389
863.7810904934125
985.885172818536
901.2862279392017
1008.4314233122915
926.9847848652107
1029.4000372262194
955.7492341308061
1046.789463462027
986.0267283794907
1078.6366821577183
1061.26066807839
1208.8462497404564
1292.632597532493
1529.0857586428917
1713.8177285078982
1975.9715007950274
2158.792079292454
2344.8512880819326
2430.7782184213147
2480.8235417202545
2462.3478656083043
2401.840026653774
2313.652755797733
2181.502040394819
2068.95147357469
1904.6077160176108
1796.621762632004
1628.0897272877562
1543.6497023545367
1381.2399321138
1327.6950736605743
1168.8587631327591
1145.5429665195616
992.3853004442946
994.2931400055941
850.316222982452
890.5046002816274
766.575801556674
842.2717185412804
740.4595841905508
855.7674162332403
771.2103001634692
916.397235585439
840.2374058855895
1000.1498482959469
913.8338469280419
1062.3523130987646
959.4125714216002
1100.191312980292
972.575413894335
1097.7561777292804
957.5554119101315
1077.2591295041084
923.4631164634807
1037.582525940639
883.8233416685193
1000.9361244115444
847.9345274149083
958.2060170786324
816.2598286805621
932.6814998333809
795.4700182486094
917.6620112789108
790.7576071006836
911.2793004561706
790.5260717329107
907.9307969162428
799.1399392548735
918.498725640589
819.4789829399456
927.6626145275993
838.4840669451643
943.8456620334091
864.9286668715221
963.7270634250751
898.1689622275447
989.2657335253542
934.6334859621226
1011.2884100528428
963.3360443045893
1031.4132935408416
996.5894529862521
1048.2096289748074
1020.374197698283
1062.3991322103916
1059.6000853809041
1121.9535974220883
1190.8576407825467
1337.6927837333967
1527.263279894885
1748.1757200687457
1990.141539629799
2185.146730889365
2373.145476117087
2456.0309699469676
2537.808509175952
2487.654992528346
2473.827137670622
2325.8189544860948
2261.8853815604525
2061.706035036655
1985.8157691191946
1770.0541294930315
1712.0621699046537
1499.5012870691496
1468.3664014858969
1264.7689394261815
1256.1473369320613
1062.6449142300498
1086.8327532418048
903.3015236147562
949.2719024024457
785.5779490110618
865.445628660499
729.5750913551046
852.985522222829
739.6386268816427
895.6891670903099
805.6397520536242
982.9883488117448
893.024998608327
1065.1572114157884
960.6102700850881
1119.961166433242
1001.9394543318803
1141.6261934147856
1003.1740593594614
1126.1367120517698
973.2778920559787
1092.12683444512
941.2665928721574
1047.0714174805964
898.059830182851
1004.6332577465288
860.6974200041567
963.281493543681
835.9587597565984
938.730831969513
816.5539172569859
917.9158444462109
813.0880352487577
912.3768798158446
814.0049988956526
909.9443450835794
832.5419459829254
916.3714751789071
847.3332875407507
927.5040071704037
871.7619712517766
943.9658001937947
905.2189108017026
966.7912601817532
935.3301049075708
986.770459332035
964.1156493442038
1004.792460691603
994.7659631836619
1020.1241910823139
1024.5552148462064
1053.9052123102936
1102.9254676464109
1179.9993171761348
1335.5200473518921
1511.2035501004823
1774.0704832914525
1993.0851965590343
2258.3085898229747
2401.8397682305285
2575.0842777272887
2578.122685827236
2634.3317193353805
2511.898306965989
2483.396539642867
2284.1873011239986
2226.3874531729507
1991.6531466671363
1934.5325246436705
1699.2055340531854
1660.2977139532377
1431.4424486614207
1419.0597588855853
1202.2588079534878
1218.468867749551
1008.7734505572516
1047.1444153672637
854.600356577092
921.18660986969
751.6884025463544
854.891044333564
713.6487023927546
852.3525031044132
743.5362250877805
910.2455703890445
817.8670826760699
994.6425883071032
895.4746393432703
1067.7708353914595
958.0623919862869
1108.8630657823355
980.0432420163088
1115.8055300412952
978.113111826122
1099.8358083969335
958.0444138708158
1061.456798516027
919.3860976434363
1016.040839220233
876.58272431287
966.3461327652547
846.6501656751831
940.4628032442249
824.7934215827532
914.6520818506344
817.4516710814819
897.2090123559619
814.293125067078
889.6943947271075
819.9102558728067
887.5247980561912
832.7363030745171
894.9043470564461
852.4084190828466
908.8204594299267
883.0581637328123
930.097433181167
914.6817647818389
949.9668518568596
950.0164312829418
975.2701277359333
990.4272116064695
1001.9667567046498
1025.7305348153975
1021.7318761933946
1056.618493993938
1041.0918819090869
1083.5007185314364
1057.0157451085372
1126.6063888338929
1132.2493851485249
1291.6899703548968
1393.5977247711542
1679.9281323723403
1859.9083876324755
2189.213303369326
2333.3165022216076
2592.667511234254
2608.132735650137
2742.0485081843326
2620.0309181546154
2653.113797041645
2434.0270639700693
2406.6780313885156
2143.1922803210064
2099.618581343397
1827.4092830497746
1802.1602845260509
1534.1616740303066
1532.846984786347
1283.4821132575814
1303.8642053183892
1073.375226010375
1114.502452395865
900.2612895180515
965.2757653092638
777.5955709783208
870.9493480359179
717.083355557472
845.7506021757333
724.4572121672318
884.437027869504
786.9036456510688
961.4120081901522
874.381500597547
1040.6067945727098
955.7337280827397
1102.5564711412458
1002.5120114128633
1125.2530973676517
1012.4000799036199
1110.7260833323533
991.31239173437
1072.487850225356
954.1234054162542
1023.6014160236776
918.7729947471526
979.4828928407828
879.9634535011219
933.9813759538752
850.6497783739761
900.3085478669789
832.7962403445763
872.6771131478565
822.3862396484215
860.1882618582429
824.5465971837062
851.483660880713
835.3076260278506
854.8472275480391
852.3605408958312
863.5141524145776
877.543275030368
877.8297256388167
905.7734598777282
893.9364751016248
938.0984060104779
922.2181948995499
978.6715416355895
952.0394037583721
1020.088704913388
971.8415804454585
1048.564563189667
995.20854020577
1077.3511838020768
1013.6258489773957
1108.3219980442414
1036.4914737335046
1145.7529440317337
1094.9765417553847
1284.0189049749115
1325.862154927392
1640.9640883200511
1780.0446471310388
2157.4654059466075
2282.175786189058
2595.5571789033465
2605.2611118720893
2792.8543508749235
2657.2288140420014
2723.789686702735
2488.7620501354522
2484.3708982951775
2199.2921999605824
2174.6157812896704
1881.6974585080618
1861.428526017032
1579.8102589575892
1577.0612947650482
1319.347753834806
1334.645737760014
1096.6370373574862
1130.1287415350316
911.5234409928298
968.6384935136772
784.839601388053
868.2167930077441
725.8612614324912
839.0316575889959
741.5980171690762
878.3977410508281
811.4851629471908
959.297336628278
911.8711339136513
1054.393289448084
1002.2908567284308
1115.3868535266743
1050.4707578823698
1129.7668130823413
1055.7556657721057
1107.128065193972
1026.9081024062796
1059.4735469619095
988.417610941546
999.4187231827751
936.4369277346898
942.8561606858754
893.5969985736488
895.2920465828375
860.4750524426761
856.5291907346959
842.3455296903195
828.3025594366152
832.7520473896863
810.2848731074007
835.6274399638302
808.9851279332271
848.28483715929
812.9354761976881
867.1446738691583
825.7375055961678
895.4795358153087
843.1153224977095
924.3592783859891
865.1197213016472
959.2488205060697
890.0332376692571
993.4932357744499
914.1666490467945
1024.4011459761969
937.4652250650186
1056.590544302991
957.3541709534016
1085.223193007471
1005.3817730528287
1192.1662090423424
1195.7731238443573
1508.2830474422224
1619.1791758266238
2011.2374047754836
2141.8157657501015
2496.4479014124026
2527.01594538186
2753.4365898186597
2641.194259775039
2734.689617721857
2511.430408117084
2522.1218779293667
2244.6909986103997
2218.2990650333445
1922.088114483279
1895.8020521884641
1609.1628512903194
1596.1716462979475
1340.7922345714223
1344.16457356353
1111.5688335112702
1131.6695610770123
923.6382288856852
957.3874604077012
779.5495535687022
832.636402017284
697.1378161032198
778.7488060078017
690.1209507202478
799.74855166784
749.660424376424
876.1381605326394
850.8703338540835
968.3525000366102
946.9823219497848
1039.4494889294888
1015.4966455320413
1071.7891971541208
1034.2989643145233
1064.0739289562428
1021.5377795463296
1029.3329771823915
989.2468121865602
973.7473685320684
945.3798369017811
915.6662372067605
901.0542462518166
867.6737902431664
866.9642872667888
824.7954570698776
840.1316987978755
794.3601798243204
829.8845680894103
775.2414548279681
829.2775306436249
773.117940624686
845.6472012632489
778.2791796490137
861.5961676174911
788.0110709677708
885.8073365209066
812.6452219484178
917.50115139254
832.3289014949778
953.4561768453142
862.1918878283702
988.11948994725
892.9856918534726
1023.1031643793191
920.0432672479521
1053.5967561689254
942.8619482478736
1082.794632345088
964.965360195385
1118.7490233534838
1033.2877536320054
1263.1504431261665
1289.7380234414313
1641.7678878546067
1775.035311890221
2184.649793315728
2311.1419246772384
2655.512055052533
2663.7856261649054
2859.900683715944
2723.8163602956993
2783.8592727400232
2544.2707001667686
2519.9816065898285
2236.1685363685942
2178.821608181904
1894.6045750524447
1838.1759903572781
1572.3001935043555
1534.3806293737382
1300.181098940561
1275.2603739524893
1076.3038373043444
1063.200511648055
892.7694216276009
890.9578474317203
756.5000428820443
774.3815651898134
687.7898252635442
735.1181066089274
696.6145859218657
769.9294689981806
771.8894977442488
849.9312390407108
870.3340927598948
937.693611982107
963.5320974302502
1000.8996832553789
1018.7078864981268
1019.6656862725492
1029.3284917706999
1000.3740326227446
1011.2255915771942
959.0442978653814
977.7374931554689
906.3497783905494
927.6931636785081
848.82730159859
886.27395157935
800.5880055277092
855.1559395291014
766.7524153508612
833.8047961545564
736.4207290986873
821.7239336834875
722.3883354144771
825.769270493873
722.0365407344995
835.690334400543
731.453910728494
854.0897774445438
745.8395363342003
879.3576033289037
768.3995734122483
912.9646235214624
801.103070341937
943.7114567086775
827.1279675535145
976.3458669710911
863.383091219184
1012.4790309120762
894.1163168296869
1041.3948880216133
922.2493033778518
1066.2100490345374
945.490926729556
1093.6458064722347
998.9734297088424
1201.6935116093148
1205.1755287985575
1531.2183654630355
1664.7483513260443
2070.4720000687357
2230.6827639339235
2584.774001314031
2645.9794037613824
2849.9581781989195
2759.632279809334
2807.236529912613
2608.2220990454953
2559.0292140373117
2304.6266503791153
2208.7015755276166
1951.8652577592964
1849.910737401081
1613.5629972590023
1528.6715525577483
1327.8931579798045
1249.2967564970818
1087.3995980403438
1022.1535221939465
894.4318273303579
840.1103103400364
747.5154841559623
717.5811182979211
675.0819529718913
675.0304933330663
686.2916969626834
708.1462046070392
760.8290650959405
797.1375497946977
877.4678579660555
906.2764045559893
989.5510587964854
984.9520181584264
1062.9964002919373
1026.19519468464
1085.6893514770527
1014.211042668063
1068.7582924595226
972.74860030603
1031.7491668740392
916.9687630111582
977.923664612247
859.6301700842705
928.6240624437697
804.4053303002463
896.445375380265
767.5311684416887
869.0234887005336
744.2281023097885
857.6044971618788
732.8062413426436
852.8486239686829
729.7675861662824
864.6385925658332
741.7199405979882
883.8286698172506
761.537257883796
908.2990170796332
790.8274755851611
941.2578311627906
823.5944909678637
974.6541379025238
857.8860040703161
1006.4553051786289
891.9268826833903
1038.840517601728
926.7789029148396
1066.7296196645189
951.7718142576136
1086.2504816081835
979.0912263662883
1120.1192255889373
1059.2372825589616
1277.8757163915318
1344.2559460478058
1686.1731201831192
1870.7206840456072
2246.761418824011
2408.325353803156
2688.0489171000067
2722.9903048396404
2833.278521461476
2726.372759308745
2699.422266978873
2503.511712165412
2390.051575584317
2167.6991997546706
2027.9400005900939
1810.4726153750157
1672.8680354694834
1489.573893005483
1364.5461578924107
1218.462739147676
1107.7259345905375
995.7539688098826
893.8356489189757
822.5234331814655
734.3314413693471
707.7302452629879
649.3844765848152
677.2508672072604
649.5462941813026
728.5731797518282
724.0469892946306
842.6857820856834
838.807739335513
970.5906101886026
949.2430072456482
1067.8694700346355
1013.3209871536956
1121.1927770133152
1031.263066674033
1124.087399184934
1002.1305940887927
1088.8741416549174
947.4008763552339
1031.52662956403
888.3310495158076
979.7611773036436
828.2589946905262
924.1003276685934
774.036276479957
887.0232954621283
741.0322438360158
863.0469274515539
726.1585751063168
857.0804210848652
722.3802547032689
859.0759670478694
728.9480132254299
872.2659077348281
746.8026374910994
890.5686934611466
773.1322799773751
920.3241533426248
807.8919963976136
951.6221568003772
848.6126623640321
988.536629175684
880.9162493382003
1008.4684339923975
907.466619803078
1035.534924414197
940.4995343580382
1058.593819261258
978.5594853423461
1114.339580403371
1108.6659975321127
1342.5366153924315
1481.567694921809
1829.1757151881138
2060.6845730185514
2409.8721738369645
2589.025042196192
2809.237711179318
2843.0373384746467
2884.916309211456
2781.1322389400493
2694.0303400962794
2513.3862611085033
2357.21160297216
2158.6399064162824
1978.9419125764593
1799.1768228941266
1629.8176897633157
1489.88556444114
1335.1247751424085
1231.6894799960708
1092.7034684079272
1027.480170000037
896.5718181072184
861.0040403678174
746.2224046618767
754.1257960586673
663.2158771051794
719.331312379965
657.9517199479303
765.6640715118498
723.1520514947043
858.4749291685254
816.7362256033718
964.3349897829547
906.0654883417076
1044.0484261622928
954.2146661866961
1073.2214755874338
955.7318697934354
1065.2576645885547
924.0517665453954
1024.7027158172841
874.7609338865573
975.2621631992477
815.0478222474987
921.7490758611946
769.5611605354259
881.0552917370784
731.2941726383807
852.3256971039891
708.3784352506153
835.5962499650212
699.2714435530299
835.0517983888806
704.5562962193577
836.6522617769925
714.7186884476946
849.6273947438713
735.4503322398808
872.0779011127607
766.3221267510123
898.0258316786895
795.7614246077582
930.6493892030195
838.1617706867038
965.1312776654485
880.716783474527
998.5499061608008
922.9884889894363
1032.734101439602
961.295337145629
1063.2955701648148
1003.723494550058
1085.2208205254665
1028.9605861136383
1096.3524779460604
1050.59594898676
1109.9797598196883
1081.2479351178565
1155.5865144808463
1204.108030020999
1379.981781319347
1580.3466790144123
1871.8474366822973
2161.0771547834192
2445.276005196115
2685.0864116615267
2833.383858856296
2927.3022991746
2901.739884913446
2857.820744701931
2699.8003985101573
2581.657079834727
2353.593919697493
2219.5482563083137
1974.5877714234084
1861.2470870399588
1625.5701765737274
1547.4072583869583
1328.720495060951
1290.139917043954
1089.1692220478915
1080.1234642221566
891.9899973943737
917.1148822078253
743.6209766496027
802.834795717309
659.5007054846301
767.408563567921
659.1195470710712
807.4535515503128
721.6722546811168
895.4964593356684
815.2684749973577
993.9536605559896
900.9002588522125
1059.7576442185987
946.0127191592682
1086.5495314993368
944.95989691565
1068.080785156808
914.8607623822822
1025.5928132602683
866.5099344415773
971.4924974421756
811.4415292556924
916.7184634444856
770.4299047677297
874.3663164995162
736.0526273614254
839.4985863698046
710.4182958125749
817.9198538816931
704.06471944227
811.5589364267985
712.9474362863399
812.3028612823199
721.4919336879394
819.7437650071605
743.8468391394956
831.8069497995116
769.5275875402101
850.9577388279997
804.2232730452376
876.8422678468038
846.7993006760486
910.2075754346099
887.8292559580092
939.3933328911428
928.8157654253249
970.6992103754958
973.1310388780909
995.2417224511205
1003.6166846985759
1010.5709581992922
1029.4606173605443
1027.0532506528598
1055.8808150172536
1048.7096228636237
1112.3210107772138
1146.7382663272122
1324.2592213749224
1478.9963910266274
1794.9758715029352
2024.4130510763912
2374.7874682129063
2547.663863425299
2803.6928225903666
2819.9207100125627
2923.3803780600297
2783.1329610530943
2776.5023818571867
2534.0337926260822
2468.913644861281
2184.221299746624
2112.12980362079
1822.6079421468876
1775.8271989944485
1504.4709169965104
1486.578446329571
1235.0970153725605
1247.9846195866983
1010.8323549066417
1051.2075332666907
834.9300500571215
897.1212103471415
711.3895075998162
817.62818908407
674.8671354572112
816.6386294357874
714.3745185931124
890.2305765697857
804.5996476108195
989.5515311117188
906.0877435039067
1072.6061747053623
975.5091851458941
1116.4817922836075
995.7322460058944
1104.6823764090782
971.4582881231935
1059.4365220004318
924.7478262567163
994.2453566023266
861.5048397169043
927.1320945566322
804.2045409554514
866.3879237322043
763.5252902038877
818.0088350201307
729.3025279006133
785.7249300052366
711.6294662169767
764.9887188770364
709.1582241334772
754.4686679682212
720.8746140580354
759.7427127523229
741.4416404085666
775.8298439445323
769.4261382152586
792.5181613141262
803.2470256321824
813.8990348441839
839.5825291492501
838.8948804986995
875.4889251160344
862.1066424194088
915.6264354296478
888.6007062592021
942.7595086465494
902.4428378753801
968.0933254561479
916.9077056373646
996.8212479951583
962.5920704275377
1121.3182202572377
1180.2980039841996
1473.2517834885452
1642.3198944840638
2023.9400619983137
2200.778095987696
2541.90295201588
2606.2355692107863
2811.8364273509906
2715.0309174781482
2782.782115051255
2559.880161342236
2548.99591957454
2264.9002968972472
2223.5915479335445
1919.7226351328259
1884.881667825913
1592.9836858251008
1582.1133299982407
1316.9977525702209
1329.809284792479
1082.580345049523
1112.5645521815684
880.5088237454007
933.8868623879955
729.8468656799989
806.6652500299474
640.0001587356359
754.7763972700727
632.6807851526384
778.3687816465939
694.3426795010483
857.5686476513142
785.8605627992802
941.4878200789353
867.2088875482425
990.7549884076276
906.3390061216127
1001.5451710670093
903.5971591988218
971.6403632839024
874.0021424798668
926.4355253739632
832.6651859689082
866.7806914370547
786.6014027825039
811.0889653746458
739.0049594832769
757.8168588775355
710.0870363057478
722.7107542241307
691.4804728281099
699.7731152901599
690.9243663419835
692.7818673340605
700.2722778202113
691.525611889928
714.5340476469519
698.201591366145
739.0095717815188
715.1061399935178
772.3738698097773
739.8323682928918
810.8306241104846
769.7587574490042
854.6720618066155
806.1024442605342
897.3471806899115
831.6781933425344
934.4904289492661
863.6070866423084
964.5552456484685
878.2680467978803
990.5743696171461
895.3038605091934
1017.6063911029793
922.6625668042137
1077.2877645650517
1035.9204928878773
1300.2536501757975
1386.4198625304573
1775.5654849090909
1934.8995683338533
2341.9618538532322
2450.1043368873347
2750.8783222722836
2708.554861705666
2854.620403909473
2667.7365311725794
2693.66028473797
2416.9373889113554
2385.8768335327377
2081.3217091620095
2035.4848716641077
1740.027892209205
1707.7552977481662
1437.8299661387598
1428.730258191213
1190.6172015475483
1194.7394486922321
977.2788404969072
996.8521337932272
804.6965034679796
838.7457491150591
682.6205528589509
741.610117701904
632.4776964804513
720.4103759061745
650.2868588470208
753.1007595184584
717.8730468512227
821.222019012019
794.6039996254556
878.8300818756809
853.1233494159628
908.8058703519447
875.0029800040163
904.5680426100769
867.7421732996607
865.3797394417354
830.0180605056875
812.0038929995932
786.2543364524716
757.1875816975866
742.2909135683458
702.5090592553682
709.1899798886428
663.1141590901601
685.6263693525992
633.6435329650047
676.7088021808992
617.740360868883
676.0158188953856
609.8596640799794
684.1256701737433
615.9606891491435
705.5636866146284
628.368349492348
729.0821948074445
651.3440111314949
762.8284629653459
677.2876561530126
801.9385141105491
708.0275857390551
842.021115262596
749.6693050957986
890.9793578624216
786.483332959284
935.6862375981423
821.6678719549212
971.0425976203555
855.310145106755
1000.1607025319427
877.8227982956735
1021.1581058939064
899.1985160662133
1047.9741403089472
940.5679600086888
1127.252818715046
1093.1471753453825
1391.3930538753862
1489.2083299513083
1890.2748324596346
2043.5380193942956
2426.4176434763235
2507.375255334404
2754.6925453203476
2683.8498421835625
2781.346606456033
2583.4408693880596
2571.0666627736555
2310.444556817958
2249.6899872636363
1981.4579275707538
1905.819205745757
1656.1804477924527
1596.5178721440204
1377.6809440101063
1331.7280571813694
1146.6862091761757
1112.135235163408
951.4331464849296
924.970948216795
798.9206423044675
788.4097211796991
705.8238098494326
722.490951943957
689.740639960139
727.8895101001733
737.357568809866
794.0981182555614
831.9487442233636
875.846974658275
916.4065195853461
936.9097845982074
971.1409791095834
959.117159781896
983.7352327143408
934.5359953859495
952.7472219732689
882.6558009108762
904.9844517302283
816.563250980978
847.4247815247201
752.5355815387791
798.6398896662896
701.7217339763863
763.3966307434637
663.6467412984828
739.9626938416837
636.7707621722295
734.0860030556369
626.2270707791341
736.1561912116805
628.9137749563112
753.0224151128726
639.5895480519636
773.9221151895715
664.4159816805709
801.8177225434359
691.3627090573
838.2708888291991
722.318890937077
873.8821650294731
755.9779493720275
904.1279819302
784.3636891398919
935.7927066994117
813.6008583063403
958.8458794562317
838.1556063133951
987.315743650194
878.8059499804411
1065.4903186639579
1034.8377425235778
1326.143428067715
1422.2186632064208
1802.777882753961
1952.9488681561897
2308.5593959695198
2387.120066104036
2620.583934641443
2561.686230915098
2644.9212019148076
2471.9319214051516
2451.753365044321
2220.356671845574
2145.3327081893754
1903.1515155564246
1819.4084900364878
1594.0117904843084
1516.8107079380316
1327.69132470989
1259.9178299691525
1110.006461331265
1050.1624133424618
926.5041174225646
874.9106818384691
778.9375356325168
736.4226794480093
688.8121582237729
671.2689564233497
673.4981899037404
675.511848100146
718.4556353405751
733.4794128632067
806.5297517027684
816.1335907502826
894.4021600174442
874.9676302782191
951.5692502862537
897.9158389787478
963.0135462935855
886.6904033319131
946.4383164306067
845.1495715241563
904.7724353304606
792.7075336672937
861.4521335603932
744.153050934704
826.7303813900146
705.5042506709232
798.2513926029417
672.5540407507837
783.435684967683
658.8813621965105
782.7271175499674
664.5519533042625
798.2698972755323
680.8880785709175
823.0324455984614
699.2178089809446
842.2059425895164
723.4852018244942
871.0889176791085
749.9145562870054
897.1071098796776
780.0288566297986
928.2929994241232
810.2104099899791
956.3454500444655
836.1969367908549
975.6459255026847
860.3747363241232
992.6406349297034
879.3506911962555
1006.3526455708778
901.3955654290327
1022.2209034329738
928.5476280160091
1059.0442173518882
1017.127195043399
1225.0350038387276
1305.0547715197686
1625.3237725992
1808.4596979900507
2155.2761073484908
2321.3970408673376
2577.6986200656406
2630.3385894666126
2732.717475060491
2651.8037992954028
2618.1787671689517
2451.2603847501314
2336.6320576056446
2139.341504465789
1993.8786995789637
1803.8185485166653
1660.2644513189798
1502.2776983894923
1373.20518346216
1251.9523235035015
1132.888504618517
1046.4130424124232
937.406105354851
883.6763902037209
781.7576748661041
764.9502244567443
681.6649340249222
707.404186452827
648.6214350429195
716.539006693045
675.8382374262636
781.2998282344763
743.3808605804254
862.8321543775022
812.7745777859443
932.8221519092164
860.583286070089
975.204366962782
878.1591498933475
982.6795428374454
863.7705028181092
962.7464385536618
831.8730650170642
934.5728184409851
792.9468072479146
898.8377590823446
757.644837047139
866.4619315543466
725.4240175798423
842.4661422112472
704.9358422345049
830.1911953798266
693.076188463336
824.9513020731138
695.8775119347996
829.905561347841
699.7634545972197
837.4750675658513
715.9176256501896
853.1818389289581
737.2871188286047
876.9920995158769
765.8831033929628
906.7579447553833
799.5829294116758
933.764534792796
835.6059433086424
962.510931862282
868.4710063436671
984.8914252201171
894.0218959229877
1003.4050185174121
922.492155525515
1023.1977377746617
953.2395127266149
1046.1330565329674
1006.6314829135043
1151.4183630437403
1216.373633898575
1468.2405260805317
1654.9749835007174
1967.9066007918018
2177.8939108824884
2432.1621742937955
2550.7351823185136
2653.7505087450486
2634.860912269589
2592.5962043264076
2480.0268469292073
2341.4365305377582
2184.774014228553
2001.6992039148556
1846.186517239312
1651.054512756784
1524.3153667048102
1346.7294732924518
1252.1541416778218
1088.0052857871926
1025.8899953796504
873.5641804498949
850.7948309602406
710.7490037839816
724.4177484994135
606.866143996325
666.1975492706587
573.1335876106077
679.2265682130729
619.3465342747469
766.3206720299592
715.8570475709279
878.3270776752967
823.6393858886585
985.2564586190148
908.2357304913679
1050.1505322740036
942.7961030433773
1068.9311040568696
932.969542470473
1043.641437548355
890.4182610355168
999.4958864976994
842.8064358001714
946.9560234450315
787.8263153964093
900.0942274737488
742.9984855316441
859.8877336649139
713.1095148048793
834.3782834910157
694.7707452353145
821.366258313586
690.9456320531423
819.4419332267294
694.4721698864571
823.6044565815531
710.1449866232518
839.5709408913954
737.4053886391088
855.8875284646497
760.6710667531396
882.0425475528589
793.2963853638191
902.6697745412373
820.7197522008219
922.7165516790768
854.6108960852637
958.4579353319996
927.4039490776767
1089.0951007004217
1176.3812025739146
1447.8224050294364
1651.827471412577
1969.9844366178872
2174.4383132305215
2414.8686348265114
2516.726716722397
2607.982242554299
2578.5460542397213
2527.9604364048782
2404.4646847574327
2261.394017486069
2098.034012207361
1919.3376323780749
1765.784905010644
1585.1244048024146
1461.5596392835478
1296.855901011838
1207.8504141941526
1048.095879269239
988.1744807010009
840.4750389799749
816.0924085898877
681.0869117790628
692.4042241631722
579.5681135998428
630.0687520271447
546.3244069122283
647.5447213134036
587.8600465978194
724.2269479321196
673.8286362864396
832.5484880606442
777.4885296962876
935.6565890043198
856.6020083780094
998.1140411573074
893.0066483698429
1019.121831666382
889.3770492384508
1005.1284191255688
855.9406598423988
961.9243830058084
808.972976137883
920.4973024464058
763.4332762681311
877.3778628515638
724.357208490901
842.6702228516358
695.9298373935175
821.9977993280143
681.8336503396703
808.7967062696937
679.7391650522627
812.2981749577863
686.6181043100539
818.5709291688835
703.1702439360744
833.0061641893365
724.583091074915
847.4440832106166
748.5257510579395
869.9974161403708
781.7449985841262
893.624518507553
808.2422584193728
915.8340674523768
857.9365048245384
998.468835817237
1030.9829131176732
1277.0094476709291
1444.4770717891456
1785.2045995424892
2009.5439905037854
2319.731665532578
2475.68984570224
2643.3517802287347
2658.1549373633425
2671.033298382262
2569.5159904659645
2468.2454675108247
2306.579974410699
2149.306381592914
1976.7377246233063
1803.3272390379827
1654.3139381748688
1488.7303400151213
1376.5481622561324
1227.5877953294041
1152.0999239891187
1009.8387903500469
963.0222664519542
828.5560953469409
810.7885950623179
685.1409685059119
706.7361473623885
603.2954601805069
664.4379504995542
586.4891428098501
688.1780828206666
625.619130158146
759.5164491253146
699.4841996316642
842.0819607275163
767.1394024577779
907.1082207301599
814.4242894551862
942.2972764969702
824.5281545726813
942.5464909427542
804.3380643182588
915.5685467350925
768.7464459073705
880.0879159690916
730.3771176237393
845.4613264416695
697.7035567241361
815.8785610904218
672.2308219617837
797.0625141285038
658.2242380566644
783.8162647488605
654.5596522719505
781.2143148367137
654.6090716673959
781.05879195679
663.8261769045433
794.7294569830955
680.8857478745142
813.9265046029807
712.0913756860932
836.595274602988
744.8137296659178
862.930858560291
780.7094748534515
892.2884522785397
810.9596463854209
914.0205213472171
841.1154094367562
929.9468147205027
871.2601520002702
955.5809461579419
925.709930027717
1049.9483907044853
1112.9784238808127
1334.8026441224677
1525.701061631821
1817.2355079018182
2051.7501574391254
2299.936861569752
2447.544467956391
2558.054049570914
2574.833435591008
2535.2528568544208
2457.2095487221695
2320.843678623024
2194.985036988182
2017.7958986042088
1893.856826012469
1708.243007076187
1607.1492115816918
1429.1483916468321
1361.4801909660719
1196.9309913930113
1159.8297220896432
995.4763656468916
982.6572562319902
828.9156361200936
845.1103092074568
701.5617424347283
755.0974607409667
629.8372737100216
723.558611642041
624.0302956238555
750.8952504721507
665.6268498094167
816.323936480967
729.7677535029397
888.3328345956428
788.6350528588226
942.3627668594063
826.2840034849813
960.8510607215294
829.6225590566011
954.9926879743261
809.0589390543659
932.0135286526935
782.1031554494135
901.7556481479602
750.9510234781461
869.397122840776
723.8700210495488
843.55951844406
700.5670480115341
820.6878228102955
692.2695421759822
811.4140305128417
688.5073799236601
806.9888073035535
692.9009351485329
807.1894995037356
705.2893310573359
816.1658473947676
724.8800578952163
829.865498001053
748.5381579732472
851.199534953033
782.6720713781285
874.701820486713
819.6152414788689
907.9104289849507
856.7136139338121
930.5543155873941
896.4728521941439
955.3235232420295
929.2851629640925
976.1113516147989
956.9129986986187
991.6769562296917
982.8065918546329
1006.4600916679946
1023.098633820753
1073.8182077482345
1175.0644091008805
1309.1954053970614
1521.96120702271
1722.8659752761164
1978.348258791014
2147.469221437121
2343.169108766767
2394.351084729408
2483.9330671588514
2410.1057618124046
2409.4709452281045
2249.795846359792
2204.1288846819216
2000.7890817018717
1948.1173663893103
1728.035059235021
1689.7714857069814
1472.441343153193
1461.87291070257
1257.0218538189758
1274.284610648838
1076.8916632570879
1112.4497648765418
923.2827264887958
978.2805555809896
806.1855815244548
894.6894984583939
747.4416540896607
863.1310845664854
736.5593625095598
888.6697408688544
781.6265344679757
943.4772690945574
839.6715821675978
1002.0829151605969
890.3482634949033
1038.974573260662
914.9010385287343
1044.1051130078438
905.9774301543118
1020.2863449117593
876.61043606176
982.3455217131758
846.7498853910022
943.5464876041273
810.724735504611
910.8484696314302
784.7621531471294
882.7106461343922
767.9670327495959
859.3911102108498
756.6020279752454
842.8811774584294
758.1833716951243
838.250331116012
763.405670834753
839.0355023459584
778.7123772002556
846.9925874449585
800.0244218952472
860.1125150401917
824.3563368177066
872.4810404355053
851.3081865317776
890.1641811318232
879.3137376271765
904.5182534146023
907.5436993358674
925.2883360227644
941.0282053471363
946.1340761569414
973.6597312368884
976.7225044735442
1060.6937351472081
1121.7563547260338
1298.8108140314791
1432.9484370970138
1684.85638041933
1831.9940953569787
2074.2417042409033
2147.1869567307394
2307.9380314025043
2266.0740415214073
2339.2887352452217
2202.2225026506944
2217.434563442128
2023.5358275197411
2012.9030517509711
1795.6585838768694
1785.13884969274
1566.6822845467343
1574.1338971799125
1362.0464779641259
1390.8124562545522
1186.2054233721678
1229.0837297008584
1029.8289530342047
1092.4743505809388
903.6114485800667
985.2421963250443
813.0961772434745
921.4193019394785
774.7630417650422
916.1179544035391
787.1971262515355
938.8669552971631
827.6715760205144
987.0849432866471
878.9540526210236
1027.215494978932
910.4071660231793
1043.890120528633
919.3376158074043
1036.2551011070386
908.5297270252161
1009.7668949133589
881.7868653379041
973.4780272692234
847.755773812663
931.066659792412
822.6190569146981
898.7176125916469
799.9269574469891
875.2967353364612
791.762637979013
856.1486813282901
785.869509805787
842.8348843131278
789.7591568011484
840.1399336587913
796.6415259870791
838.8629597781021
812.3737600116763
846.7341820301247
833.1397003315091
859.768266894742
865.0791822072978
879.4752853952825
896.3448638598978
897.7480471878899
926.4871503108408
915.5468921470739
953.8944405724375
930.934969432551
978.8077370555055
944.5814688298336
1007.7024930134406
964.7258039706361
1054.5720070301993
1044.2723990638428
1211.9907087926458
1276.3804012058267
1539.6630722557807
1657.4144139446437
1957.1633016170877
2042.2512844197056
2282.817276833368
2269.58794354515
2415.3931559579396
2288.6695546356905
2350.7958756007765
2152.9577344954564
2169.3648576046035
1938.085482967297
1947.5676101610698
1705.6534713299377
1721.4035441496035
1489.564470538486
1524.3484105670682
1300.3720401300395
1348.14568432592
1135.3826507570925
1190.6959199221876
984.5138625818569
1059.499228167949
869.3028509204074
961.8767732793921
798.0951417428307
912.7910437690778
782.9525285619123
915.1603840633804
801.2941435569448
940.005518432057
839.8891851555092
976.4408300181832
876.4623243891413
993.7551690301315
895.1079726432886
996.0938525486963
893.2839401876536
975.4367253804564
875.5760291961527
943.6934819069728
847.7732154309374
900.8587423220572
815.8128995894692
862.0770207901204
795.1254467321714
831.0063470420658
778.3378215048062
813.2960113959891
776.0894592077012
797.7014417076356
777.4158333699744
790.1573394032916
781.2179835447116
784.494725429337
795.6171940693421
789.4593045819253
814.4792413154521
797.8625500358318
839.4754023884254
815.6384498053765
867.2918797603534
832.4288864578134
898.9341994674077
854.4219099545238
933.1753321289988
878.0870820564661
967.1050901875043
899.9956027185399
995.7659790440016
916.0757413643828
1017.5326092665839
930.6060378740947
1042.7842041650972
959.5218807008652
1107.7626987710566
1068.1295451003675
1300.9983144296532
1342.9187256762727
1656.9523290216955
1735.8237062856824
2048.517929370625
2078.7613198522085
2315.852566755591
2245.5419428158916
2383.658117660883
2221.8242819916554
2290.379394111368
2066.0809745695474
2096.5839670735645
1849.0006759139676
1866.5911607728806
1623.8546939970715
1650.7040524267375
1423.8099281352418
1460.8025728415564
1248.050061416188
1293.5291463389094
1091.250364369042
1139.3503546546547
960.5918141198813
1020.372811332827
860.898764720437
934.3925979767088
812.3647626187309
906.7240309847209
815.5437453881492
924.4931335728943
856.4254384604818
961.8430974957806
904.4652383923868
996.0322595844592
939.3014552173357
1004.7352060994339
952.3247194616381
1001.8807731168681
947.370317550492
976.7964164893971
927.8535989567415
940.6296805917746
900.0406017396779
901.8797854045692
872.9847664795536
867.1405823361251
855.7804083086406
839.3651362399241
841.8708988505941
819.1197309183411
838.2476725755166
804.1308228307021
841.1451414491482
800.4586145548907
847.7138656869216
796.4541800939586
861.8414546755956
804.1155951949474
883.2058596201745
817.9021497947796
906.6759563065707
838.2688226261838
940.1241839635182
859.5702496818885
968.130559855924
877.3995787147918
994.5314446339465
898.1060998424811
1023.9868269918661
918.4719003420935
1049.4247123472762
936.1597319984411
1068.9680385444663
949.4795214166409
1089.048084204661
974.4240379631631
1144.1843715569585
1085.5352095401233
1338.3622181846779
1363.5794509076475
1690.5268066446133
1756.3608622903857
2080.37204372773
2102.4047129127935
2344.864955604641
2263.3702507387175
2398.0051535239622
2228.9316027934015
2291.1274289656953
2071.3738403838197
2087.0836613666793
1846.6810417286893
1848.8512989919675
1618.5948233288977
1625.5566433051597
1412.3522363798731
1425.8115838401563
1234.1038500807279
1252.3961608419188
1079.645254108032
1102.222798268954
950.9868690477675
981.2101703165556
864.4909569378535
912.8755174119606
831.9919336657738
895.7386373543745
846.5182813287411
917.5461964500859
895.1370819722023
961.6058107385344
949.2193085222707
997.1010640493535
989.0924872918001
1009.6272130314949
997.3662314170496
992.0358723062188
983.3602799737378
962.7142622218123
959.9314920352234
918.5301770874079
924.7158073322995
872.3387819394371
892.6387014555712
837.4201526981797
872.4904952136931
804.2591811116581
853.8007658407658
784.0879904637582
847.507872883133
772.1986102713761
853.1297129797017
764.9459152429063
856.6499938793945
766.3838792566877
869.8309325580406
774.4651880661842
887.2481516903772
783.3866343415455
912.6843360039805
810.2919629806103
945.7146493915837
838.3408985493309
976.4221347115474
861.2165983026259
1004.7019563570994
886.8755228141112
1029.8121531461184
905.1802075413393
1049.4253462275226
923.4232472239116
1071.6730049900166
951.4671426414296
1124.7979796852544
1062.8744504393158
1312.6868399517562
1345.4847864847281
1682.256777701112
1766.7001620348524
2104.509640906707
2153.9246461598564
2407.904471663647
2356.2923242261386
2495.190759703738
2343.844450292497
2389.226357121798
2179.3946543274315
2176.1263282614455
1948.8146617842715
1924.3399832571918
1702.5383612444837
1681.3094186891444
1481.1174998539811
1464.2626936808483
1289.8471183786685
1275.9991932101339
1120.647781714793
1110.368077797014
974.338852359177
967.0400217406268
866.7207498850108
870.0655930599813
808.13940129971
832.6723876214377
808.5151128382139
840.9797118783646
845.8828710450395
877.0398672616961
895.9597203349615
918.0572948494457
943.6343480176469
938.5710655844435
962.1889254615534
933.978744020209
957.083127403381
905.1526798622983
930.830919165465
863.8944357922168
900.5615274366462
823.2852638139628
866.285002612029
785.7229408968061
844.3994514448146
751.3082761734127
825.3947550904466
729.8432185409956
818.1025036585804
718.4121379023524
815.5964184759421
713.1613325558824
820.8860481961314
711.9041846778692
830.5265824050925
719.7217041658663
853.1528701741047
741.6055877514738
877.577905039051
763.440620812311
905.1247709043566
788.0142675904215
931.9649539513234
813.7498986727206
965.2002467075704
845.7793790933456
993.7806567989948
868.0535521101054
1014.8501663908406
889.179784176863
1032.6334545591621
910.331714067524
1055.9878246421636
951.3161010619376
1142.197150640864
1120.4205578563458
1407.8629052509698
1484.6221850217173
1828.5783024461423
1934.2129361563202
2244.6764056554043
2279.3724968362153
2472.194649626801
2394.9939643554367
2467.9938123921042
2296.7868847652644
2290.902681864565
2075.8071585908774
2026.722102974643
1805.3570615185913
1747.3196128795016
1547.3494609070397
1497.6221473085334
1324.4781297667266
1285.710142834167
1137.943486923254
1100.2199092723592
979.1465076342635
943.9505146490158
847.4735583449112
827.8251663610906
776.2628847284487
769.6408913455251
749.9300752915592
759.7944900153617
782.095974993881
799.5892124728173
847.0308936336796
859.778543756335
919.1902460478234
914.5513150280328
973.4043421876069
942.5340832958801
996.590909964907
939.0758492016805
988.9717795025292
914.5325718729574
969.7973717200921
875.8214517898076
936.6994257614443
830.7503033107449
901.7853278779019
791.1577409732805
874.0087385687762
761.898523881003
860.7733072772647
744.8206181357361
852.7438535187148
735.4409272267267
851.0438493057395
731.1325992686766
857.7893663836949
736.5654448423741
871.4147973538609
752.3348926133493
893.0659055022254
772.3765025868569
919.3117155760212
798.4347902431432
947.314004702499
827.5604591427125
979.9460439623349
865.4008476852782
1010.4010529067202
894.4207985717305
1041.6997683085583
922.9679978955512
1063.0317682414795
951.294432546755
1086.6819470149353
981.3999216509283
1118.223965455712
1044.5339954641188
1238.0413171060509
1265.9260087476575
1556.2067889196553
1678.6363043887254
2013.9572377596612
2144.417850111466
2409.915459407726
2447.6717171223545
2585.883122130217
2506.9932812801717
2516.2843337977465
2358.476085019383
2295.9728456525318
2106.1738990258386
2006.4966029070124
1819.5631803686776
1713.0653367883042
1549.0682405582854
1448.721782252253
1316.4416124434765
1223.6220189690873
1124.5569632381046
1040.089659267319
968.8841751123495
885.2142645219581
853.7486094454207
787.1790185702432
793.1701407205919
747.3795520118903
801.595615629377
773.1605399106636
863.243309917747
841.2381384121053
947.2573935733847
917.6674690351476
1029.145191262653
970.0038994696937
1070.6471036308544
984.6208555563239
1077.3111757448958
967.0496674536789
1056.3022422021534
926.9900742711563
1019.1370132901214
880.7582256894877
976.341421670077
835.0326679433426
932.6250604387409
790.1086222361191
905.0304401923933
763.5922242193332
882.5736451255387
745.8441886210147
874.7999528293135
737.7326899447883
871.6818403579133
739.823485444755
879.3567737926413
753.0229619564528
895.6427464792603
772.1642965893911
910.0461489169422
795.472790356187
939.6000675450863
825.5774426098357
963.9841836083119
855.8825038421504
984.5051369973661
884.0852930972642
1009.8270342816327
914.9314980293562
1032.311192353712
944.7405458732347
1076.1775739069813
1045.7206959077844
1249.7144865422576
1338.507087796013
1639.1679049027443
1810.9873929783362
2127.851259126607
2273.928719243759
2489.661866795281
2529.574329611667
2604.2002935289574
2525.4547209051575
2482.057368354661
2334.893630535756
2222.1694951429795
2054.210095073855
1913.231557790116
1757.1206934775994
1617.6550845226138
1491.8726426230887
1359.2388082473644
1268.6376645951561
1145.1245406585344
1083.21962898341
961.0613553983206
925.3210740023218
815.4195035261416
813.7760926742784
715.8451625951927
755.5694058267245
684.0510740428884
766.3382510183291
711.7672307472919
830.8085523562831
776.8097977857441
914.767133552539
853.8724218298794
987.1600990415859
900.937800922752
1025.9343265067976
917.5367555629452
1030.525404382961
901.8888195988591
1010.2785101743617
863.1132508355038
969.5232679725161
821.0349161632645
932.569747352686
780.7257373504074
899.3295301619556
750.552183115282
869.8960494866303
726.9101112030953
858.8500039625119
718.5412716417693
850.5121692862701
715.7750865948906
852.5688464242869
724.9271225288142
857.7833174089648
737.5717886571703
874.2307697624083
764.9323958010111
897.0678923629299
796.5096632664979
923.8115239857159
829.9522557713022
949.1186423563489
861.6580126237409
971.1502981147789
894.8368773171228
993.9265480675429
924.4072361063052
1013.5860178022023
951.1235777080693
1031.410121174794
986.5230407405871
1091.837709315451
1132.9151559745442
1324.6298698823346
1491.3414957902212
1765.5378501247687
1995.7582260628665
2253.967581651039
2428.8527712553296
2563.0379780369726
2621.51740280856
2610.126233687239
2557.777881178718
2431.0103137260485
2323.0833993534293
2143.5734469621275
2020.4156238425373
1822.1547836002517
1719.7121680348325
1524.6040315038033
1454.1164826537479
1272.5992853125638
1234.6069134433742
1065.3649121125038
1057.3180018611602
895.0024754053532
912.1337377042305
759.7269510840682
814.3844527671841
684.1609651586976
780.6262577739644
672.143303365101
808.2571331549734
717.923687159824
875.0616301606589
794.9254438932609
962.248647372262
871.1226073700108
1029.0200728255288
917.1295168470629
1063.7131607684885
929.967786799469
1057.8919751014382
908.4438580872362
1023.7381969526207
874.6536764808981
987.0818305131193
832.0034039780126
942.293352437013
791.9770223165381
899.0432390904568
755.814199619358
870.6101342072686
736.6649758375961
851.7505486792294
727.9853415668545
841.1047223971498
732.3262437738692
840.459061069645
742.771649164855
846.1337761007964
759.0465720317738
856.2778801369441
781.1936780991724
877.441600646016
816.944502939702
904.2813991706505
853.7517245053949
929.9314136787217
894.5537324220655
959.9617934550257
932.1525646487424
984.6358886398209
963.9953311815295
999.6705123516585
993.0461191027064
1017.9895168533433
1029.0209129151983
1051.4471841792124
1116.4922816979822
1207.2176107296707
1395.9996724585922
1590.9490885030202
1879.0462831532825
2097.0017792640565
2369.995242094975
2495.790081659659
2657.837744092381
2632.258232441646
2667.9072672376933
2511.983479161489
2465.9985539671284
2233.9188298146228
2161.4625869833403
1904.6285731220596
1839.2806934773087
1587.0503624020773
1544.788143048837
1307.8548073326115
1300.6906028435242
1076.5327434605763
1098.2935564905395
887.1489194754846
934.4362050448652
740.955670450909
816.964013562917
652.7366407953937
768.6517054941284
637.0482486075917
791.495734069679
690.1696089404755
871.3703857978653
780.0165098711158
958.6047457725914
866.887739432579
1034.484333986039
927.2942822474563
1076.496021469311
949.923300825828
1075.1475176322688
931.8794223052214
1036.777275236893
896.6935367084944
989.8862138151773
847.615320760999
935.8542111068813
806.975709413148
891.3140999528698
779.0927934290985
856.0489541668979
758.7773526335893
833.3597094296612
748.805868416776
818.2317570411508
752.8917481168589
815.8141193221771
759.6184821839748
816.4154246353419
780.8250630275321
827.6507579829138
806.2669822465731
846.6401900423446
842.100094700373
869.9889665583518
874.8761569217552
893.4734055355111
910.8473090845546
918.6437450161992
947.8149493949082
940.1555761589211
980.638754638578
954.8791467638298
1010.7672093210763
993.0963953326597
1102.235912571087
1151.4410529401218
1385.21728102735
1538.8206475877985
1868.1566756577458
2050.92672612139
2360.294025051651
2450.2175713644638
2652.7111688015966
2598.079717917472
2671.8678210139965
2485.508807980705
2473.724367502357
2217.577264082772
2173.7046867758577
1889.3078412016523
1853.1575805265998
1575.2809511308908
1559.9172161542906
1304.316188612277
1320.055420037011
1079.1388752764947
1115.5149151359728
889.5949808555663
945.2625192822504
743.5578768999892
820.6721679619268
645.6387587779064
756.858277945245
620.0097616215653
765.0902820085081
661.7096958779933
829.8071109755265
744.9317524231203
915.0807497676107
835.2176032495611
989.8546133350914
898.4466691862214
1030.9710081359542
926.2850471814633
1028.6979114097805
913.431726499643
996.8216963560309
882.9331101109414
953.1252193185112
845.9961878703377
903.3744132614578
807.2787203436159
853.3307059145344
774.5967198753223
820.9833500645498
755.5660620258839
792.1860691759426
747.1095864893518
780.2464636275753
756.1581099260135
777.6205054086882
763.9051536374702
778.4708283329757
782.1151465853162
790.912343860034
810.499223052457
807.2901138543242
842.3334557726567
832.3976263530132
881.9283457497717
860.6257340772063
924.6912118859475
892.01449731796
964.7310423081402
918.9890791123272
1005.9814951752961
947.6885052105247
1039.3230347624528
967.0435689707108
1067.977825523972
987.199292114017
1092.8888222322823
1006.218582137935
1151.1058630348477
1123.739354115464
1383.5445860110453
1471.7977047919019
1843.396910738689
1988.985072543153
2362.7974967406767
2441.823102309416
2712.000536864502
2645.3523738966614
2768.532727459047
2569.593604575545
2589.1115911220727
2306.2840104387474
2275.9017365078953
1967.3205818359024
1929.4559383388955
1629.5587929741496
1610.507141937988
1338.084071283406
1342.5434381756615
1098.11243552834
1124.3593423429827
900.639281979216
940.1292365943548
744.5793079465432
802.4221185106396
640.3039728380533
726.3872623285987
607.7238838276621
716.2157136989033
640.5865387740885
770.8404918861356
725.8986214041602
854.2861174676651
821.6208977203991
937.1821895304695
897.3646681337292
986.2278853784333
939.591614433962
999.0665289875251
938.8079118125934
971.6049313629078
916.1596582532953
927.1200717873008
881.940533231034
877.9837460825551
844.2916577237293
832.8551790413985
816.0280119739649
793.4646230152694
795.0038794291676
766.3397051303001
784.0851648652563
749.2995652459963
784.8738649078571
743.8048759468148
793.9387869273345
743.324796130478
810.0781798210365
755.2094262997069
837.0816134930336
772.1690913431183
870.8494108525421
798.7666751765095
907.0824899907476
829.1570821901821
946.4013933299665
861.9247953118006
991.5073670152385
897.1222044037378
1029.546827311172
929.1255141735819
1070.3486597558594
960.5627668688978
1102.957807073394
982.4645630432905
1124.367499570838
1001.5868568693411
1148.957231628448
1034.3675574493452
1216.635465432046
1179.3864016666687
1474.9928095754624
1562.483321727669
1961.435660906299
2096.6044212395623
2470.0177648072
2527.146897317865
2774.8083472848484
2690.040123128133
2787.6837094179186
2580.1989365222744
2574.598150860645
2294.1762641460473
2238.7219746923433
1946.981628803124
1877.874920573256
1604.0786623100928
1553.7983163016486
1316.6808780626873
1282.581383325825
1079.9425112619674
1061.0647978255267
891.8961590046035
882.9431374429793
750.8589560592025
761.3152549731227
671.3022649863792
705.8172444073095
665.5120693212186
726.8239885209199
728.5896181509694
805.7924192810467
837.7148892454101
908.0699889987619
953.7963754214214
998.5209857526062
1030.256053279696
1039.2882570279762
1063.416460495842
1041.8283389506983
1053.3235655086808
998.8862525460833
1012.6702584948432
934.7544975349405
960.3311820503391
874.1236792052888
910.0616265080142
821.8229110174827
875.1554455168189
777.5594729017323
845.6004761030142
746.9577159084386
833.9899910145425
734.9054461424449
834.5906750774844
732.8913392380327
846.4945992807035
735.0719555538476
861.8404906459147
753.9371523659515
885.5642141748126
778.8521387279542
919.4623367225155
810.6435020393666
957.8869680252681
850.6495776259248
999.815728330101
882.8891111342795
1035.1391897397227
917.1367325044562
1069.1814733918718
948.0219749442371
1093.921475046693
972.0485304387163
1115.0434896960267
993.7202101096599
1150.3977890027331
1079.6792356253723
1319.9870678619345
1375.9386248005503
1730.6237343697624
1889.2540502746854
2277.264040494493
2405.250302540152
2694.2728991369563
2695.435629014885
2824.0009104859164
2686.717780807789
2677.9989189188386
2452.686712988658
2367.306830948513
2104.694975811631
1990.6014836321417
1749.0894199700401
1644.222792689588
1434.5359108734958
1355.138318791362
1183.4099104799484
1112.7502567732254
979.6844293475325
912.4491627718852
808.6815101915033
759.1542724926784
698.887545917558
670.87765600262
657.488734593312
656.2601645866936
696.1690021135606
713.7658381474153
788.4256523532094
816.4315543713096
910.760475762745
916.9438994004222
1010.7329481615064
987.1930206858614
1068.3091186160646
1011.9263369672824
1078.996362691543
988.8278238487868
1054.9353459250876
939.5337545194319
1006.788510672612
879.5318447771829
956.0198797517176
825.801809173609
912.229586386574
782.83140215367
882.4498906114159
753.0418611303392
865.8932767862175
733.753559018217
855.8784630255743
725.9547977792831
862.0749454336552
733.3905266896184
873.0936235777307
746.3441370371503
895.0998614178206
771.7235292903504
919.0350496102985
799.7441504404499
951.650394745122
835.9261701359459
986.371215028269
873.5418854581234
1025.9428682925704
915.4235934844377
1057.2842697939775
953.6961663481344
1090.403325674848
981.9956102930263
1105.9224005971225
1005.2549358574873
1124.7842476922374
1036.8935362210245
1171.9164689479367
1150.8112237125765
1380.3102220749274
1502.589382546751
1849.1677237068645
2059.154473458166
2409.065923512095
2578.743734987923
2804.1273006308197
2829.0320197515775
2878.408312798816
2770.432051215581
2686.902131637334
2497.358803156263
2341.8249208345846
2134.6233448581493
1957.7898336722699
1769.7486563790844
1601.800024011433
1450.893837438898
1303.0224765036537
1199.9783896134709
1064.4622377989635
995.1867742707814
871.3719573775098
833.9675313779019
718.8840832376284
720.7450601601263
632.6860739863479
681.240030011901
614.9953752189468
713.3091354164214
670.4446837419385
802.813104755306
766.1654271677887
915.1677463150767
863.9198629458476
1006.3015558216475
927.1982086743802
1056.1826652342427
946.5507504785082
1061.9352987975465
926.2219186344719
1029.7164300772984
881.0090782837706
987.0434719712717
828.2070615888018
933.5080646695766
775.866230559933
891.2281621048951
741.1201423369602
858.2296864356603
714.3739910910622
847.3985436872819
704.7230209715783
837.5083634998894
705.2558208285077
838.8845734217914
711.8363034181976
848.9584708974401
732.6862099233709
867.4716324416289
757.2600551792565
888.1799512107328
795.3081781823021
923.268781408286
838.3682621989282
960.7416974045279
880.2212179364927
992.0055796949629
921.7822590089893
1025.0295866333865
962.0154897392938
1052.3514009867156
997.6663115642941
1071.9442547301055
1025.9020874141293
1090.54938748193
1058.799126496901
1123.0382444599963
1143.8739389043878
1283.6349068509558
1441.3240558372634
1700.205390035113
1973.1685779359036
2263.9732562897398
2522.811790433313
2710.0844585507916
2836.628683232903
2845.1142687748616
2827.2051878503703
2693.212375554056
2584.663606572
2365.1425249179756
2228.504742574547
1985.1372606185314
1860.6176861692275
1620.83527510766
1534.125892659447
1315.345269344547
1270.1101011437102
1067.4456598150537
1055.0095741286468
865.9259289915524
887.0003967884179
714.6763583763482
769.7799297352452
627.629418946223
730.6613448507934
623.2013112434679
773.7448753057902
695.4748322678594
875.8815210068768
811.8817729679345
998.4630769645416
920.5610075803487
1096.5365582235702
995.7035412173159
1148.8677200041348
1017.5845300718478
1145.5683987581249
993.1043299910599
1105.360719244097
944.854906899292
1048.3136621906942
884.2724318346255
984.8269035885075
828.9230950823629
932.6200596108553
786.9471888423546
890.8584457214454
757.3415865990596
864.2731781616948
745.6954694065989
853.2063858572213
744.1871146121007
849.7027977446011
755.8778237961462
855.333788214322
777.1858146053763
873.4285373371328
808.849340183565
899.4435786284434
848.8385851808282
928.5103796497192
890.7273988242985
957.4988294961989
928.6476017637008
985.7226903538989
967.4397731801996
1009.2986002352408
999.6094275173309
1023.27488020008
1025.1009088562762
1039.202563272358
1063.739667716242
1098.3369753089726
1203.933454455904
1337.3964077510236
1587.943810109305
1819.0575959626512
2144.0366459745323
2367.8371517484366
2644.56811985434
2742.7460645850515
2878.7951152647674
2803.8841127436053
2805.8648623042022
2609.523243389273
2535.1158616135085
2271.828933890515
2179.7221859510305
1898.852046154137
1825.7506284187755
1561.999680325477
1525.1909689599088
1278.5982838433815
1275.019566475611
1046.7114932719885
1067.7527286444704
854.5565894046597
898.4178125209934
707.0640733492635
791.7976330589131
628.6460571001297
752.7730423489086
628.1472787040241
791.6193934205419
699.447789848719
883.3056242258717
798.3482426876091
984.7624642265864
895.0724971446557
1059.4240937117197
946.1869215918745
1085.0783075210059
955.8364149972555
1072.7595828653607
934.5348148702427
1032.6211793637337
891.6002183159075
979.4471818332202
838.8691748956658
915.696461501426
789.3174327973729
868.0292081471721
756.113671945952
831.5055558856172
738.6970066729979
809.011515469021
730.3428997778534
796.5343917454661
729.2124326524245
792.4228499366579
744.9062588895979
799.049859907273
767.177205450016
813.4060684877322
798.8521280194132
834.5354632697038
836.0947861071354
863.5487828327003
881.5251069174283
894.3878112785289
924.0415501754361
926.849043230805
968.6133062440314
956.2724224410626
1003.3976534927318
975.8369663842161
1035.7369282212492
996.7213564300226
1062.4315099167682
1002.605358815654
1081.1104349039863
1023.1681290000605
1140.7697650555097
1143.260964714684
1389.2510328212334
1516.3062177233114
1888.47871160814
2074.740243240746
2450.9001580671147
2567.1563241578874
2837.3285840993376
2796.384169884695
2916.979448790711
2724.932237070848
2729.0644358610384
2443.949370774169
2394.7290265968154
2078.4422601942306
2022.8322054684995
1710.2641777983358
1676.8942854152624
1391.29532510583
1393.5687099922031
1135.1379247247578
1159.6469522369327
926.0491866940451
973.7227609799345
761.8893327522309
826.5823148238829
646.6804316131402
741.9812769906583
601.4551304232067
726.7744049468554
619.6543866294332
766.0186502224227
686.7533175563519
834.0291702344921
763.4177046615728
898.3362945850399
825.926430333916
936.1090036381206
856.2712952483431
945.5452210810699
860.3354875943734
920.3994443134926
839.6396837013112
884.3241619129883
807.3520706694592
841.3443889911654
779.7174439840476
802.0943695019383
754.2663927372321
772.4445567168831
737.382924763622
745.5975103130395
731.8543131126802
729.4574901660401
730.915840464843
715.9977501745942
732.0915476669654
707.8785852365799
736.0494217496135
706.2217806747168
751.6222097603792
710.90685274764
774.5963625368557
729.0969211809813
809.8300511138647
756.4491399722655
847.7140463697401
791.92204804809
893.3708415694371
825.0716980345077
938.9364714325069
862.2797229956028
984.0622908874423
898.0891982781039
1021.2181374867972
922.4448943831462
1054.7664839805675
944.5793343177695
1072.9426860400565
959.6593824084773
1097.5013905865928
1005.795033189569
1210.948310006758
1224.7307284038986
1550.136731090979
1676.7443479745527
2076.5760863565515
2209.1993367112286
2554.8545469225996
2581.3386680653675
2788.780917431473
2671.7450359049235
2737.6618406674593
2499.0654203847353
2476.402519844812
2188.242990410658
2129.556334979967
1835.7985193450743
1780.680363154887
1509.1926762090625
1465.2187805624383
1232.8431275424248
1207.5057547852687
1002.7218310727417
997.978322462363
824.4150612479887
830.9441514406152
692.9725921683737
724.2823388171937
627.8966002617725
677.9713484456751
638.8055651592508
717.1440697879324
714.6175468632792
802.2318429342553
822.4935510269963
901.7216964989426
927.3090534146858
984.908845629335
1004.1039279463772
1022.5469059375763
1027.7029725456514
1011.1457476618643
1007.9471734996503
966.6910810187527
967.5819678506532
909.0230210303275
918.7111507387636
848.3374194378293
874.3188999895864
798.5678640716432
839.0863606944725
757.5775840102914
813.9218158807475
732.5042832725758
806.9164390302417
719.0769585221132
806.867942643825
713.5685173746198
816.0586911993435
725.8285430993724
842.25870277661
748.444044031222
868.3992556839321
771.4104518176313
900.8988824615294
800.8719163460457
929.7605112596827
823.7316430422803
958.9833197481937
852.3775451329175
984.222705995071
871.8924242422623
1007.2714408488114
895.9033759352553
1049.3781294905418
984.9367607227437
1217.4792493921498
1266.4314936914097
1614.5921036977516
1756.647225550779
2137.90687960132
2257.797213526908
2556.027547371888
2560.6186805459442
2712.118051987933
2582.9503831229736
2605.5511717045574
2381.8201851308704
2325.8308645090283
2069.987273505214
1986.8609061117822
1735.5563966639472
1656.2057221454988
1432.036679825942
1367.4864723895043
1181.2132738309367
1131.5425130454303
973.5354743868523
927.9674391690777
798.1289376790033
766.7149410248408
675.2117567661446
659.0325374242854
611.0415857013131
620.3501504718635
623.9767149098054
659.3479809507947
699.8665584082365
741.217722537902
804.7804807648772
833.8736580325896
903.6011509297123
902.8933238596122
964.3788809906245
934.3968228478756
987.4687063436818
928.2255477290946
977.3007136300821
895.7206829111873
944.6088489736399
846.6943987238222
903.9686245338911
796.0903724779895
863.7560274433596
756.3034529958943
838.1289248997831
724.5962238227139
820.53049649809
706.6863462251516
812.5789870120369
699.733794912363
818.2010525378336
703.0404585872375
826.2835406505219
711.5697724222149
846.7122602816397
734.2190239696754
867.633458266274
757.30638639463
900.4050322731437
794.0323724754794
938.4012983775534
832.9218232795686
971.3482461342185
865.3272607471717
1003.7938801591747
899.2919100245439
1030.524639656282
929.6752975670486
1053.4429746936976
951.3025459020264
1074.808968549531
1003.7326933992318
1177.6784519133514
1207.3637086338456
1493.802394265605
1658.3411502867114
2028.4289987111479
2233.1325853000267
2559.978722265015
2676.1119467793715
2852.6966105249753
2820.7156791730904
2841.6725825000995
2691.189871340697
2598.4202155370244
2391.406391921728
2245.397518235902
2032.994587934571
1878.1929705975729
1691.9957062788776
1547.9828356069063
1402.338586586777
1276.3408323461695
1162.775586782202
1047.7752589298418
970.6046087568304
862.2735608794824
813.2759853315459
717.6531035739922
705.7276264731038
625.9780057451111
667.9281777404717
614.2515000109172
691.204542045887
655.4726378317139
759.7500153858671
726.4566899784362
847.4368004747882
802.6528558684141
921.4039437166136
849.8641155686462
953.8696026996832
854.8169629007886
955.5281189267146
832.7078371559309
923.6952189806213
791.5236218972431
883.7670068994875
742.9256359015736
838.2313747821036
700.7742627551204
807.4239230048408
671.9626967142344
779.9137747004683
645.5879564907116
764.7845905855921
637.3348881083275
764.5616492304038
640.0655187592068
763.6210878301489
647.3933177436461
776.5988943994126
662.6000618178932
795.3745502100709
696.8199727518922
824.010551211669
731.7707713402642
857.2074851803424
773.0545470889049
893.1089443475072
818.7531954335227
928.0333879121567
857.0720783916667
959.5673407145324
893.6311817865951
984.5312891354688
928.1755125636005
1006.5492571323506
958.7575977981774
1033.7874286319056
1019.574759118142
1142.0357278312324
1243.109098192702
1484.6002989854712
1721.6887186357026
2032.1383022091047
2297.68759046977
2546.8436384211045
2709.9371171348644
2800.0024370774067
2815.98986895796
2746.607842544102
2649.3660881613037
2476.7980748142936
2328.0061845226523
2112.579880569733
1967.7322894301533
1746.064466337752
1627.1203498573163
1420.6566017887817
1339.0705569613256
1147.8661791288232
1104.5673786755167
928.1506672027749
913.1438827571876
749.802236796852
763.0542440677949
617.1050621264562
672.9850034684315
553.512513001233
654.3322244871977
570.8205363029672
708.9828190701421
644.5800232730742
810.5072489625351
741.9932072286454
909.6269237397868
833.1056986715741
986.0774481226096
884.2171986219378
1022.0023585507232
898.5046229540178
1015.6187440688647
878.8581105529378
985.1279219553137
835.9719963462558
938.6004643683555
794.9201835815513
893.3742080290405
756.7382886521865
856.386622167903
727.5681956719214
830.3422485560159
707.1936979991841
815.588666063622
706.8628211069308
810.2518813851236
715.2985046558014
810.0849865702041
727.9312256160111
823.8781902544314
750.3576640238063
840.144420468808
778.1554365912053
861.5413665242515
815.6436164339862
896.3402823605863
862.5653265411598
933.8160077233116
911.9778714018869
968.4269896289475
952.3792132527174
998.3307888553514
992.3893462381103
1022.7941867716402
1027.065747979365
1042.9663003914163
1060.7199948373336
1064.6502576725684
1107.0531855613888
1155.1382753386551
1311.4456596112361
1478.429962153795
1770.6623740494124
2017.419097946573
2352.8542107087706
2547.304470991063
2785.4631057031575
2826.206345052166
2913.871154443648
2793.806220786502
2763.3790341245513
2533.632084241007
2442.385114827308
2167.321405378912
2074.944122911655
1792.3031270025895
1719.7772481109246
1459.0154490859543
1421.6611043924752
1180.254418192486
1175.265377631894
953.8430646077295
977.25800743415
770.6517568774956
821.5551428374969
642.2314723993428
727.7992473162942
583.806330151605
706.3564723013178
601.54441306816
761.0171631127173
682.8373139406921
859.0022321723864
788.9542878422143
960.7697204986185
882.1157065639627
1030.5653271368096
936.7006587203965
1056.3037792251241
943.0989492089938
1038.980831313247
914.5687737426529
993.671222110368
868.5521470788414
934.3739184366399
820.2647040108678
882.9536203367426
782.728562778054
835.166492454002
749.0967604919313
804.4713680065212
735.4018957090756
783.2556976071038
731.8339997103824
774.6737647786686
741.545654327371
777.2895930562712
757.3137370644123
785.2300573848548
783.0332068299915
802.0711964036674
815.5904455284664
826.4651057377591
855.5788957670765
857.9977363641289
900.7774142926504
892.1134852672222
945.4884507859487
925.5188156124233
984.9386141525792
949.1724725188271
1019.4248602970362
969.6266548842151
1045.157927272852
984.8356791370775
