0.537634409
0.534701857
0.531769306
0.528836755
0.524926686
0.520039101
0.515151515
0.509286413
0.504398827
0.500488759
0.497556207
0.495601173
0.494623656
0.494623656
0.494623656
0.495601173
0.49657869
0.497556207
0.497556207
0.495601173
0.492668622
0.488758553
0.483870968
0.476050831
0.467253177
0.456500489
0.444770283
0.433040078
0.421309873
0.411534702
0.401759531
0.392961877
0.386119257
0.380254154
0.375366569
0.370478983
0.365591398
0.361681329
0.357771261
0.35483871
0.352883675
0.350928641
0.349951124
0.348973607
0.348973607
0.34799609
0.34799609
0.34799609
0.346041056
0.345063539
0.344086022
0.342130987
0.339198436
0.337243402
0.336265885
0.335288368
0.337243402
0.340175953
0.345063539
0.351906158
0.360703812
0.372434018
0.386119257
0.401759531
0.419354839
0.436950147
0.455522972
0.475073314
0.493646139
0.512218964
0.529814272
0.543499511
0.556207234
0.568914956
0.581622678
0.592375367
0.601173021
0.607038123
0.608993157
0.60801564
0.603128055
0.596285435
0.587487781
0.57771261
0.568914956
0.559139785
0.550342131
0.542521994
0.536656891
0.532746823
0.529814272
0.52688172
0.523949169
0.521994135
0.518084066
0.514173998
0.509286413
0.505376344
0.500488759
0.49657869
0.493646139
0.48973607
0.485826002
0.482893451
0.478983382
0.477028348
0.474095797
0.471163245
0.467253177
0.464320626
0.460410557
0.456500489
0.450635386
0.443792766
0.436950147
0.42913001
0.421309873
0.414467253
0.407624633
0.400782014
0.393939394
0.389051808
0.384164223
0.379276637
0.374389052
0.369501466
0.363636364
0.358748778
0.353861193
0.34799609
0.343108504
0.337243402
0.333333333
0.330400782
0.327468231
0.323558162
0.320625611
0.316715543
0.312805474
0.308895406
0.304985337
0.302052786
0.301075269
0.302052786
0.305962854
0.311827957
0.319648094
0.329423265
0.342130987
0.356793744
0.372434018
0.388074291
0.404692082
0.421309873
0.436950147
0.45259042
0.467253177
0.481915934
0.492668622
0.502443793
0.512218964
0.521994135
0.529814272
0.535679374
0.539589443
0.54056696
0.539589443
0.537634409
0.534701857
0.529814272
0.524926686
0.521016618
0.516129032
0.511241447
0.505376344
0.501466276
0.497556207
0.494623656
0.502443793
0.516129032
0.521016618
0.521994135
0.521016618
0.518084066
0.516129032
0.514173998
0.511241447
0.507331378
0.504398827
0.500488759
0.49657869
0.491691105
0.486803519
0.480938416
0.475073314
0.468230694
0.462365591
0.456500489
0.450635386
0.444770283
0.437927664
0.431085044
0.424242424
0.418377322
0.412512219
0.408602151
0.403714565
0.398826979
0.394916911
0.39198436
0.388074291
0.384164223
0.380254154
0.377321603
0.374389052
0.3714565
0.370478983
0.368523949
0.367546432
0.367546432
0.369501466
0.3714565
0.375366569
0.381231672
0.390029326
0.400782014
0.414467253
0.430107527
0.446725318
0.465298143
0.482893451
0.499511241
0.516129032
0.528836755
0.54056696
0.552297165
0.56402737
0.574780059
0.582600196
0.589442815
0.593352884
0.594330401
0.593352884
0.591397849
0.587487781
0.582600196
0.57771261
0.572825024
0.566959922
0.560117302
0.552297165
0.544477028
0.538611926
0.532746823
0.527859238
0.523949169
0.520039101
0.515151515
0.509286413
0.504398827
0.500488759
0.495601173
0.491691105
0.487781036
0.483870968
0.480938416
0.478005865
0.474095797
0.470185728
0.46627566
0.462365591
0.45943304
0.456500489
0.453567937
0.451612903
0.449657869
0.447702835
0.445747801
0.442815249
0.439882698
0.437927664
0.434017595
0.430107527
0.427174976
0.424242424
0.420332356
0.416422287
0.413489736
0.409579668
0.405669599
0.401759531
0.396871945
0.39198436
0.386119257
0.380254154
0.375366569
0.3714565
0.366568915
0.360703812
0.356793744
0.351906158
0.34799609
0.344086022
0.340175953
0.336265885
0.332355816
0.329423265
0.327468231
0.326490714
0.325513196
0.325513196
0.324535679
0.324535679
0.323558162
0.323558162
0.323558162
0.322580645
0.321603128
0.318670577
0.31769306
0.316715543
0.31769306
0.318670577
0.321603128
0.325513196
0.333333333
0.343108504
0.35483871
0.369501466
0.386119257
0.405669599
0.427174976
0.450635386
0.471163245
0.48973607
0.509286413
0.528836755
0.548387097
0.566959922
0.585532747
0.601173021
0.615835777
0.626588465
0.635386119
0.641251222
0.644183773
0.644183773
0.642228739
0.639296188
0.633431085
0.626588465
0.619745846
0.611925709
0.603128055
0.595307918
0.588465298
0.582600196
0.578690127
0.575757576
0.571847507
0.568914956
0.565004888
0.560117302
0.556207234
0.551319648
0.546432063
0.541544477
0.537634409
0.532746823
0.527859238
0.522971652
0.519061584
0.514173998
0.509286413
0.505376344
0.500488759
0.49657869
0.491691105
0.487781036
0.482893451
0.478983382
0.47311828
0.469208211
0.465298143
0.462365591
0.460410557
0.458455523
0.458455523
0.45943304
0.463343109
0.469208211
0.478005865
0.487781036
0.498533724
0.51026393
0.521016618
0.529814272
0.539589443
0.549364614
0.558162268
0.565982405
0.571847507
0.574780059
0.576735093
0.57771261
0.575757576
0.572825024
0.567937439
0.562072336
0.554252199
0.545454545
0.536656891
0.527859238
0.519061584
0.512218964
0.505376344
0.500488759
0.49657869
0.493646139
0.48973607
0.486803519
0.483870968
0.479960899
0.477028348
0.47311828
0.470185728
0.46627566
0.462365591
0.458455523
0.454545455
0.449657869
0.445747801
0.441837732
0.437927664
0.440860215
0.444770283
0.444770283
0.443792766
0.440860215
0.437927664
0.434995112
0.432062561
0.42913001
0.427174976
0.424242424
0.42228739
0.421309873
0.418377322
0.416422287
0.414467253
0.411534702
0.408602151
0.404692082
0.400782014
0.397849462
0.394916911
0.393939394
0.393939394
0.394916911
0.397849462
0.402737048
0.409579668
0.419354839
0.432062561
0.445747801
0.462365591
0.479960899
0.498533724
0.517106549
0.536656891
0.551319648
0.565004888
0.578690127
0.592375367
0.605083089
0.616813294
0.626588465
0.634408602
0.639296188
0.643206256
0.644183773
0.642228739
0.639296188
0.634408602
0.6285435
0.622678397
0.61485826
0.606060606
0.598240469
0.591397849
0.58455523
0.57771261
0.571847507
0.565982405
0.560117302
0.555229717
0.551319648
0.54740958
0.542521994
0.538611926
0.532746823
0.52688172
0.521016618
0.515151515
0.51026393
0.504398827
0.498533724
0.493646139
0.488758553
0.483870968
0.478005865
0.47311828
0.467253177
0.462365591
0.457478006
0.453567937
0.449657869
0.445747801
0.441837732
0.437927664
0.43597263
0.434017595
0.431085044
0.428152493
0.424242424
0.421309873
0.417399804
0.413489736
0.409579668
0.406647116
0.403714565
0.401759531
0.399804497
0.397849462
0.395894428
0.395894428
0.396871945
0.399804497
0.405669599
0.413489736
0.423264907
0.43597263
0.449657869
0.464320626
0.479960899
0.493646139
0.506353861
0.521016618
0.535679374
0.551319648
0.565004888
0.578690127
0.590420332
0.601173021
0.608993157
0.615835777
0.618768328
0.620723363
0.618768328
0.615835777
0.609970674
0.604105572
0.596285435
0.589442815
0.581622678
0.573802542
0.566959922
0.560117302
0.554252199
0.548387097
0.544477028
0.539589443
0.535679374
0.530791789
0.525904203
0.521016618
0.517106549
0.513196481
0.508308895
0.50342131
0.499511241
0.495601173
0.491691105
0.488758553
0.484848485
0.479960899
0.476050831
0.472140762
0.468230694
0.463343109
0.458455523
0.454545455
0.449657869
0.445747801
0.441837732
0.438905181
0.434995112
0.432062561
0.428152493
0.423264907
0.418377322
0.413489736
0.408602151
0.404692082
0.399804497
0.396871945
0.394916911
0.393939394
0.393939394
0.392961877
0.39198436
0.390029326
0.388074291
0.386119257
0.384164223
0.382209189
0.379276637
0.37829912
0.376344086
0.375366569
0.376344086
0.37829912
0.382209189
0.388074291
0.396871945
0.409579668
0.424242424
0.440860215
0.45943304
0.478983382
0.498533724
0.518084066
0.534701857
0.549364614
0.565982405
0.582600196
0.599217986
0.613880743
0.627565982
0.639296188
0.649071359
0.656891496
0.660801564
0.663734115
0.663734115
0.661779081
0.65884653
0.653958944
0.647116325
0.640273705
0.632453568
0.625610948
0.617790811
0.609970674
0.603128055
0.597262952
0.590420332
0.585532747
0.580645161
0.574780059
0.569892473
0.565982405
0.562072336
0.559139785
0.555229717
0.552297165
0.548387097
0.544477028
0.54056696
0.535679374
0.530791789
0.525904203
0.520039101
0.514173998
0.507331378
0.500488759
0.492668622
0.484848485
0.478005865
0.471163245
0.465298143
0.458455523
0.453567937
0.448680352
0.444770283
0.439882698
0.43597263
0.432062561
0.42913001
0.426197458
0.41544477
0.401759531
0.392961877
0.387096774
0.382209189
0.37829912
0.376344086
0.373411535
0.370478983
0.368523949
0.366568915
0.364613881
0.363636364
0.361681329
0.358748778
0.355816227
0.353861193
0.351906158
0.350928641
0.348973607
0.347018573
0.346041056
0.344086022
0.343108504
0.34115347
0.340175953
0.339198436
0.339198436
0.340175953
0.342130987
0.347018573
0.353861193
0.364613881
0.37829912
0.394916911
0.414467253
0.43597263
0.458455523
0.480938416
0.502443793
0.522971652
0.542521994
0.559139785
0.571847507
0.585532747
0.598240469
0.609970674
0.619745846
0.627565982
0.633431085
0.637341153
0.638318671
0.637341153
0.634408602
0.6285435
0.622678397
0.616813294
0.608993157
0.601173021
0.593352884
0.586510264
0.579667644
0.572825024
0.566959922
0.561094819
0.554252199
0.548387097
0.542521994
0.537634409
0.532746823
0.52688172
0.521016618
0.515151515
0.509286413
0.502443793
0.49657869
0.490713587
0.484848485
0.478983382
0.474095797
0.469208211
0.463343109
0.458455523
0.45259042
0.447702835
0.442815249
0.438905181
0.434995112
0.431085044
0.426197458
0.421309873
0.416422287
0.411534702
0.407624633
0.403714565
0.399804497
0.394916911
0.391006843
0.387096774
0.383186706
0.379276637
0.375366569
0.372434018
0.369501466
0.366568915
0.365591398
0.363636364
0.361681329
0.359726295
0.357771261
0.356793744
0.355816227
0.355816227
0.357771261
0.363636364
0.3714565
0.382209189
0.393939394
0.405669599
0.419354839
0.434995112
0.450635386
0.468230694
0.483870968
0.499511241
0.515151515
0.528836755
0.543499511
0.556207234
0.565982405
0.573802542
0.581622678
0.588465298
0.593352884
0.596285435
0.597262952
0.596285435
0.592375367
0.586510264
0.578690127
0.569892473
0.560117302
0.551319648
0.542521994
0.534701857
0.52688172
0.520039101
0.513196481
0.506353861
0.500488759
0.495601173
0.492668622
0.490713587
0.488758553
0.485826002
0.483870968
0.481915934
0.478983382
0.475073314
0.470185728
0.46627566
0.461388074
0.457478006
0.45259042
0.448680352
0.443792766
0.438905181
0.434017595
0.430107527
0.426197458
0.42228739
0.418377322
0.413489736
0.410557185
0.407624633
0.404692082
0.401759531
0.399804497
0.396871945
0.394916911
0.392961877
0.391006843
0.388074291
0.38514174
0.382209189
0.379276637
0.376344086
0.373411535
0.370478983
0.368523949
0.366568915
0.366568915
0.367546432
0.370478983
0.375366569
0.384164223
0.394916911
0.407624633
0.42228739
0.438905181
0.454545455
0.471163245
0.487781036
0.504398827
0.519061584
0.530791789
0.544477028
0.557184751
0.57086999
0.581622678
0.592375367
0.599217986
0.604105572
0.607038123
0.607038123
0.604105572
0.600195503
0.595307918
0.589442815
0.583577713
0.576735093
0.569892473
0.563049853
0.557184751
0.550342131
0.544477028
0.538611926
0.53372434
0.527859238
0.522971652
0.518084066
0.513196481
0.507331378
0.501466276
0.495601173
0.48973607
0.484848485
0.480938416
0.476050831
0.472140762
0.468230694
0.464320626
0.461388074
0.457478006
0.453567937
0.450635386
0.447702835
0.443792766
0.439882698
0.43597263
0.432062561
0.428152493
0.423264907
0.419354839
0.416422287
0.412512219
0.411534702
0.411534702
0.409579668
0.407624633
0.405669599
0.402737048
0.399804497
0.396871945
0.393939394
0.39198436
0.389051808
0.387096774
0.384164223
0.380254154
0.377321603
0.375366569
0.373411535
0.3714565
0.369501466
0.368523949
0.367546432
0.366568915
0.366568915
0.366568915
0.366568915
0.366568915
0.364613881
0.363636364
0.360703812
0.357771261
0.355816227
0.352883675
0.350928641
0.348973607
0.348973607
0.349951124
0.351906158
0.356793744
0.363636364
0.373411535
0.386119257
0.402737048
0.421309873
0.442815249
0.46627566
0.48973607
0.513196481
0.534701857
0.553274682
0.568914956
0.585532747
0.601173021
0.616813294
0.630498534
0.642228739
0.65200391
0.659824047
0.66568915
0.668621701
0.669599218
0.667644184
0.664711632
0.659824047
0.653958944
0.646138807
0.638318671
0.630498534
0.622678397
0.613880743
0.606060606
0.598240469
0.592375367
0.585532747
0.579667644
0.573802542
0.566959922
0.560117302
0.553274682
0.54740958
0.54056696
0.534701857
0.528836755
0.521994135
0.515151515
0.508308895
0.50342131
0.498533724
0.493646139
0.488758553
0.485826002
0.481915934
0.478983382
0.476050831
0.47311828
0.470185728
0.467253177
0.464320626
0.461388074
0.45943304
0.45943304
0.460410557
0.462365591
0.467253177
0.474095797
0.483870968
0.495601173
0.509286413
0.522971652
0.537634409
0.551319648
0.561094819
0.569892473
0.578690127
0.586510264
0.592375367
0.597262952
0.599217986
0.600195503
0.599217986
0.596285435
0.592375367
0.586510264
0.580645161
0.573802542
0.565982405
0.558162268
0.551319648
0.543499511
0.536656891
0.529814272
0.523949169
0.519061584
0.513196481
0.508308895
0.50342131
0.499511241
0.49657869
0.493646139
0.490713587
0.488758553
0.487781036
0.485826002
0.484848485
0.482893451
0.480938416
0.479960899
0.478005865
0.476050831
0.475073314
0.47311828
0.471163245
0.469208211
0.46627566
0.463343109
0.45943304
0.455522972
0.449657869
0.443792766
0.436950147
0.430107527
0.424242424
0.419354839
0.412512219
0.404692082
0.397849462
0.390029326
0.383186706
0.377321603
0.3714565
0.367546432
0.362658847
0.358748778
0.353861193
0.350928641
0.34799609
0.345063539
0.34115347
0.338220919
0.336265885
0.33431085
0.333333333
0.33431085
0.337243402
0.344086022
0.353861193
0.365591398
0.37829912
0.394916911
0.414467253
0.43597263
0.457478006
0.479960899
0.501466276
0.522971652
0.543499511
0.563049853
0.581622678
0.599217986
0.612903226
0.623655914
0.634408602
0.643206256
0.649071359
0.652981427
0.654936461
0.652981427
0.649071359
0.644183773
0.637341153
0.629521017
0.620723363
0.612903226
0.605083089
0.596285435
0.589442815
0.583577713
0.576735093
0.571847507
0.566959922
0.563049853
0.560117302
0.556207234
0.552297165
0.548387097
0.544477028
0.54056696
0.536656891
0.531769306
0.524926686
0.519061584
0.513196481
0.508308895
0.504398827
0.500488759
0.497556207
0.495601173
0.492668622
0.48973607
0.485826002
0.480938416
0.476050831
0.470185728
0.465298143
0.460410557
0.456500489
0.451612903
0.447702835
0.443792766
0.440860215
0.436950147
0.434017595
0.431085044
0.427174976
0.423264907
0.419354839
0.416422287
0.414467253
0.413489736
0.411534702
0.409579668
0.407624633
0.406647116
0.403714565
0.400782014
0.395894428
0.39198436
0.388074291
0.384164223
0.382209189
0.380254154
0.379276637
0.37829912
0.379276637
0.379276637
0.379276637
0.37829912
0.376344086
0.375366569
0.373411535
0.372434018
0.370478983
0.369501466
0.369501466
0.3714565
0.375366569
0.380254154
0.387096774
0.396871945
0.409579668
0.425219941
0.442815249
0.461388074
0.480938416
0.500488759
0.520039101
0.539589443
0.559139785
0.574780059
0.589442815
0.605083089
0.620723363
0.634408602
0.646138807
0.655913978
0.662756598
0.666666667
0.668621701
0.668621701
0.666666667
0.663734115
0.65884653
0.653958944
0.649071359
0.642228739
0.634408602
0.627565982
0.62170088
0.61485826
0.608993157
0.602150538
0.595307918
0.589442815
0.583577713
0.578690127
0.574780059
0.569892473
0.565982405
0.562072336
0.559139785
0.556207234
0.553274682
0.550342131
0.548387097
0.546432063
0.544477028
0.542521994
0.54056696
0.538611926
0.535679374
0.532746823
0.528836755
0.524926686
0.521994135
0.519061584
0.517106549
0.516129032
0.517106549
0.519061584
0.522971652
0.529814272
0.538611926
0.549364614
0.561094819
0.572825024
0.58455523
0.595307918
0.605083089
0.61485826
0.622678397
0.629521017
0.634408602
0.638318671
0.640273705
0.641251222
0.641251222
0.637341153
0.632453568
0.626588465
0.618768328
0.609970674
0.599217986
0.589442815
0.579667644
0.571847507
0.562072336
0.553274682
0.545454545
0.537634409
0.529814272
0.522971652
0.516129032
0.51026393
0.504398827
0.499511241
0.494623656
0.490713587
0.486803519
0.482893451
0.478983382
0.474095797
0.469208211
0.465298143
0.460410557
0.456500489
0.45259042
0.448680352
0.444770283
0.439882698
0.43597263
0.430107527
0.425219941
0.419354839
0.414467253
0.408602151
0.403714565
0.398826979
0.393939394
0.389051808
0.386119257
0.383186706
0.382209189
0.380254154
0.379276637
0.37829912
0.376344086
0.374389052
0.372434018
0.370478983
0.369501466
0.367546432
0.366568915
0.365591398
0.364613881
0.362658847
0.361681329
0.359726295
0.358748778
0.357771261
0.357771261
0.358748778
0.362658847
0.368523949
0.37829912
0.390029326
0.405669599
0.42228739
0.438905181
0.458455523
0.478983382
0.501466276
0.522971652
0.544477028
0.565982405
0.585532747
0.603128055
0.619745846
0.635386119
0.647116325
0.655913978
0.664711632
0.670576735
0.675464321
0.677419355
0.677419355
0.674486804
0.670576735
0.664711632
0.659824047
0.653958944
0.649071359
0.643206256
0.637341153
0.630498534
0.625610948
0.620723363
0.616813294
0.612903226
0.608993157
0.605083089
0.600195503
0.594330401
0.588465298
0.583577713
0.57771261
0.57086999
0.563049853
0.556207234
0.549364614
0.542521994
0.536656891
0.529814272
0.523949169
0.517106549
0.511241447
0.505376344
0.500488759
0.495601173
0.490713587
0.483870968
0.477028348
0.470185728
0.464320626
0.460410557
0.455522972
0.451612903
0.447702835
0.443792766
0.440860215
0.438905181
0.436950147
0.434995112
0.433040078
0.432062561
0.432062561
0.433040078
0.436950147
0.442815249
0.451612903
0.462365591
0.47311828
0.483870968
0.497556207
0.507331378
0.515151515
0.524926686
0.536656891
0.548387097
0.558162268
0.567937439
0.574780059
0.580645161
0.58455523
0.586510264
0.586510264
0.585532747
0.582600196
0.57771261
0.572825024
0.566959922
0.560117302
0.552297165
0.545454545
0.538611926
0.531769306
0.525904203
0.520039101
0.515151515
0.51026393
0.506353861
0.502443793
0.498533724
0.494623656
0.490713587
0.487781036
0.484848485
0.482893451
0.479960899
0.478005865
0.476050831
0.47311828
0.469208211
0.464320626
0.45943304
0.454545455
0.450635386
0.445747801
0.441837732
0.438905181
0.434995112
0.431085044
0.428152493
0.424242424
0.421309873
0.417399804
0.412512219
0.408602151
0.404692082
0.401759531
0.398826979
0.396871945
0.394916911
0.393939394
0.394916911
0.396871945
0.399804497
0.405669599
0.413489736
0.424242424
0.437927664
0.453567937
0.471163245
0.490713587
0.51026393
0.530791789
0.54740958
0.561094819
0.576735093
0.591397849
0.607038123
0.620723363
0.634408602
0.64516129
0.654936461
0.661779081
0.666666667
0.668621701
0.667644184
0.664711632
0.659824047
0.654936461
0.648093842
0.641251222
0.635386119
0.6285435
0.62170088
0.61485826
0.608993157
0.602150538
0.596285435
0.590420332
0.585532747
0.579667644
0.573802542
0.566959922
0.560117302
0.552297165
0.545454545
0.537634409
0.530791789
0.523949169
0.516129032
0.508308895
0.500488759
0.493646139
0.485826002
0.478983382
0.47311828
0.467253177
0.461388074
0.455522972
0.449657869
0.445747801
0.440860215
0.436950147
0.434017595
0.431085044
0.427174976
0.423264907
0.418377322
0.413489736
0.408602151
0.404692082
0.400782014
0.397849462
0.395894428
0.393939394
0.392961877
0.393939394
0.397849462
0.403714565
0.412512219
0.424242424
0.437927664
0.453567937
0.471163245
0.48973607
0.508308895
0.525904203
0.543499511
0.558162268
0.569892473
0.581622678
0.593352884
0.604105572
0.612903226
0.619745846
0.624633431
0.627565982
0.627565982
0.626588465
0.622678397
0.616813294
0.610948192
0.603128055
0.596285435
0.589442815
0.582600196
0.574780059
0.567937439
0.561094819
0.554252199
0.548387097
0.543499511
0.537634409
0.532746823
0.527859238
0.523949169
0.520039101
0.515151515
0.51026393
0.506353861
0.502443793
0.498533724
0.493646139
0.48973607
0.484848485
0.480938416
0.477028348
0.472140762
0.467253177
0.462365591
0.457478006
0.451612903
0.446725318
0.440860215
0.436950147
0.432062561
0.428152493
0.425219941
0.42228739
0.419354839
0.416422287
0.413489736
0.409579668
0.406647116
0.403714565
0.401759531
0.398826979
0.395894428
0.39198436
0.388074291
0.384164223
0.381231672
0.37829912
0.374389052
0.3714565
0.368523949
0.365591398
0.362658847
0.360703812
0.358748778
0.357771261
0.357771261
0.359726295
0.362658847
0.367546432
0.375366569
0.387096774
0.399804497
0.41544477
0.434017595
0.45259042
0.47311828
0.493646139
0.514173998
0.53372434
0.550342131
0.56402737
0.578690127
0.593352884
0.607038123
0.618768328
0.6285435
0.635386119
0.640273705
0.642228739
0.641251222
0.638318671
0.634408602
0.629521017
0.623655914
0.616813294
0.608993157
0.602150538
0.595307918
0.589442815
0.582600196
0.576735093
0.566959922
0.556207234
0.549364614
0.543499511
0.538611926
0.53372434
0.528836755
0.523949169
0.519061584
0.514173998
0.51026393
0.506353861
0.502443793
0.497556207
0.492668622
0.486803519
0.480938416
0.477028348
0.472140762
0.467253177
0.462365591
0.458455523
0.454545455
0.450635386
0.446725318
0.442815249
0.438905181
0.434017595
0.431085044
0.428152493
0.425219941
0.423264907
0.42228739
0.423264907
0.426197458
0.430107527
0.437927664
0.447702835
0.458455523
0.470185728
0.482893451
0.494623656
0.504398827
0.515151515
0.525904203
0.535679374
0.544477028
0.552297165
0.557184751
0.562072336
0.56402737
0.565004888
0.56402737
0.562072336
0.557184751
0.552297165
0.546432063
0.539589443
0.532746823
0.525904203
0.520039101
0.514173998
0.508308895
0.502443793
0.495601173
0.48973607
0.483870968
0.478983382
0.47311828
0.468230694
0.463343109
0.458455523
0.45259042
0.446725318
0.439882698
0.434017595
0.42913001
0.423264907
0.419354839
0.41544477
0.411534702
0.406647116
0.401759531
0.396871945
0.392961877
0.388074291
0.384164223
0.379276637
0.374389052
0.369501466
0.364613881
0.360703812
0.357771261
0.353861193
0.349951124
0.347018573
0.343108504
0.340175953
0.338220919
0.337243402
0.335288368
0.33431085
0.333333333
0.332355816
0.332355816
0.331378299
0.330400782
0.329423265
0.327468231
0.327468231
0.328445748
0.330400782
0.335288368
0.343108504
0.353861193
0.367546432
0.382209189
0.397849462
0.416422287
0.437927664
0.45943304
0.480938416
0.502443793
0.521994135
0.54056696
0.558162268
0.574780059
0.589442815
0.600195503
0.608993157
0.616813294
0.623655914
0.627565982
0.6285435
0.627565982
0.625610948
0.620723363
0.61485826
0.60801564
0.601173021
0.594330401
0.588465298
0.581622678
0.576735093
0.571847507
0.566959922
0.562072336
0.557184751
0.552297165
0.546432063
0.541544477
0.535679374
0.529814272
0.522971652
0.518084066
0.512218964
0.507331378
0.502443793
0.497556207
0.491691105
0.485826002
0.479960899
0.474095797
0.468230694
0.463343109
0.458455523
0.453567937
0.447702835
0.442815249
0.436950147
0.431085044
0.426197458
0.420332356
0.413489736
0.407624633
0.401759531
0.395894428
0.391006843
0.387096774
0.384164223
0.380254154
0.377321603
0.373411535
0.369501466
0.365591398
0.361681329
0.357771261
0.35483871
0.351906158
0.348973607
0.346041056
0.344086022
0.34115347
0.337243402
0.333333333
0.329423265
0.324535679
0.320625611
0.31769306
0.315738025
0.314760508
0.315738025
0.31769306
0.322580645
0.328445748
0.337243402
0.348973607
0.363636364
0.379276637
0.396871945
0.41544477
0.434017595
0.453567937
0.472140762
0.490713587
0.505376344
0.519061584
0.532746823
0.545454545
0.558162268
0.568914956
0.57771261
0.583577713
0.586510264
0.587487781
0.585532747
0.582600196
0.578690127
0.573802542
0.568914956
0.563049853
0.556207234
0.550342131
0.544477028
0.538611926
0.53372434
0.527859238
0.522971652
0.518084066
0.514173998
0.511241447
0.509286413
0.508308895
0.507331378
0.506353861
0.504398827
0.502443793
0.500488759
0.49657869
0.493646139
0.48973607
0.485826002
0.481915934
0.478005865
0.47311828
0.469208211
0.470185728
0.475073314
0.474095797
0.470185728
0.464320626
0.457478006
0.449657869
0.441837732
0.434017595
0.427174976
0.42228739
0.41544477
0.409579668
0.403714565
0.396871945
0.390029326
0.382209189
0.375366569
0.369501466
0.363636364
0.357771261
0.352883675
0.34799609
0.345063539
0.34115347
0.337243402
0.333333333
0.329423265
0.327468231
0.325513196
0.324535679
0.325513196
0.327468231
0.331378299
0.338220919
0.346041056
0.357771261
0.372434018
0.389051808
0.407624633
0.427174976
0.446725318
0.46627566
0.485826002
0.504398827
0.522971652
0.539589443
0.554252199
0.565004888
0.576735093
0.586510264
0.594330401
0.600195503
0.603128055
0.604105572
0.602150538
0.599217986
0.594330401
0.588465298
0.582600196
0.576735093
0.569892473
0.56402737
0.558162268
0.552297165
0.546432063
0.541544477
0.537634409
0.53372434
0.530791789
0.527859238
0.523949169
0.520039101
0.517106549
0.513196481
0.509286413
0.504398827
0.498533724
0.493646139
0.487781036
0.482893451
0.477028348
0.472140762
0.46627566
0.462365591
0.458455523
0.454545455
0.449657869
0.445747801
0.441837732
0.437927664
0.434017595
0.42913001
0.424242424
0.418377322
0.413489736
0.407624633
0.403714565
0.399804497
0.394916911
0.390029326
0.384164223
0.379276637
0.374389052
0.370478983
0.367546432
0.364613881
0.361681329
0.357771261
0.35483871
0.352883675
0.349951124
0.346041056
0.343108504
0.34115347
0.340175953
0.34115347
0.344086022
0.348973607
0.356793744
0.367546432
0.379276637
0.39198436
0.407624633
0.426197458
0.445747801
0.46627566
0.485826002
0.506353861
0.524926686
0.543499511
0.56402737
0.581622678
0.593352884
0.603128055
0.609970674
0.617790811
0.622678397
0.625610948
0.625610948
0.622678397
0.618768328
0.612903226
0.605083089
0.596285435
0.587487781
0.579667644
0.572825024
0.565982405
0.559139785
0.553274682
0.548387097
0.542521994
0.538611926
0.53372434
0.529814272
0.523949169
0.518084066
0.513196481
0.507331378
0.502443793
0.497556207
0.492668622
0.486803519
0.481915934
0.476050831
0.471163245
0.465298143
0.460410557
0.455522972
0.449657869
0.444770283
0.440860215
0.434995112
0.42913001
0.424242424
0.418377322
0.414467253
0.409579668
0.405669599
0.401759531
0.396871945
0.393939394
0.390029326
0.388074291
0.386119257
0.383186706
0.380254154
0.377321603
0.374389052
0.372434018
0.370478983
0.368523949
0.365591398
0.363636364
0.360703812
0.359726295
0.357771261
0.355816227
0.35483871
0.352883675
0.351906158
0.349951124
0.348973607
0.34799609
0.346041056
0.345063539
0.343108504
0.342130987
0.34115347
0.34115347
0.340175953
0.338220919
0.335288368
0.332355816
0.329423265
0.326490714
0.324535679
0.322580645
0.321603128
0.320625611
0.320625611
0.322580645
0.326490714
0.331378299
0.340175953
0.351906158
0.365591398
0.383186706
0.402737048
0.423264907
0.444770283
0.467253177
0.48973607
0.509286413
0.52688172
0.546432063
0.566959922
0.587487781
0.606060606
0.623655914
0.639296188
0.653958944
0.664711632
0.673509286
0.679374389
0.681329423
0.680351906
0.678396872
0.674486804
0.668621701
0.661779081
0.654936461
0.647116325
0.639296188
0.631476051
0.622678397
0.612903226
0.606060606
0.600195503
0.595307918
0.592375367
0.588465298
0.58455523
0.580645161
0.574780059
0.569892473
0.56402737
0.557184751
0.549364614
0.541544477
0.534701857
0.528836755
0.521994135
0.516129032
0.51026393
0.50342131
0.498533724
0.494623656
0.490713587
0.487781036
0.484848485
0.481915934
0.478983382
0.476050831
0.47311828
0.469208211
0.463343109
0.457478006
0.451612903
0.445747801
0.438905181
0.433040078
0.426197458
0.420332356
0.414467253
0.410557185
0.406647116
0.401759531
0.397849462
0.394916911
0.392961877
0.39198436
0.394916911
0.399804497
0.406647116
0.416422287
0.42913001
0.442815249
0.454545455
0.467253177
0.480938416
0.495601173
0.509286413
0.522971652
0.536656891
0.549364614
0.560117302
0.568914956
0.576735093
0.581622678
0.583577713
0.582600196
0.581622678
0.578690127
0.573802542
0.568914956
0.563049853
0.555229717
0.548387097
0.541544477
0.534701857
0.527859238
0.521994135
0.517106549
0.513196481
0.509286413
0.504398827
0.500488759
0.495601173
0.490713587
0.485826002
0.480938416
0.476050831
0.471163245
0.46627566
0.461388074
0.458455523
0.455522972
0.45259042
0.450635386
0.447702835
0.443792766
0.440860215
0.437927664
0.434995112
0.433040078
0.42913001
0.426197458
0.424242424
0.420332356
0.417399804
0.414467253
0.411534702
0.406647116
0.402737048
0.397849462
0.392961877
0.387096774
0.383186706
0.379276637
0.376344086
0.374389052
0.373411535
0.3714565
0.370478983
0.370478983
0.3714565
0.374389052
0.379276637
0.387096774
0.397849462
0.411534702
0.426197458
0.439882698
0.456500489
0.474095797
0.49657869
0.517106549
0.530791789
0.545454545
0.559139785
0.571847507
0.583577713
0.594330401
0.603128055
0.609970674
0.612903226
0.615835777
0.616813294
0.61485826
0.611925709
0.607038123
0.600195503
0.592375367
0.58455523
0.575757576
0.566959922
0.560117302
0.553274682
0.545454545
0.538611926
0.532746823
0.528836755
0.524926686
0.521994135
0.519061584
0.515151515
0.512218964
0.508308895
0.504398827
0.500488759
0.495601173
0.490713587
0.485826002
0.480938416
0.476050831
0.472140762
0.468230694
0.463343109
0.458455523
0.453567937
0.448680352
0.444770283
0.440860215
0.43597263
0.431085044
0.426197458
0.42228739
0.417399804
0.413489736
0.409579668
0.404692082
0.400782014
0.396871945
0.392961877
0.390029326
0.388074291
0.38514174
0.381231672
0.37829912
0.375366569
0.3714565
0.367546432
0.364613881
0.361681329
0.357771261
0.353861193
0.350928641
0.348973607
0.346041056
0.342130987
0.339198436
0.336265885
0.333333333
0.330400782
0.327468231
0.325513196
0.322580645
0.320625611
0.320625611
0.321603128
0.323558162
0.327468231
0.33431085
0.343108504
0.35483871
0.369501466
0.386119257
0.404692082
0.425219941
0.446725318
0.469208211
0.487781036
0.505376344
0.523949169
0.543499511
0.563049853
0.581622678
0.598240469
0.61485826
0.6285435
0.641251222
0.650048876
0.655913978
0.659824047
0.659824047
0.657869013
0.653958944
0.649071359
0.642228739
0.634408602
0.625610948
0.616813294
0.60801564
0.600195503
0.593352884
0.586510264
0.579667644
0.573802542
0.567937439
0.562072336
0.558162268
0.555229717
0.550342131
0.545454545
0.54056696
0.537634409
0.53372434
0.530791789
0.52688172
0.523949169
0.521016618
0.517106549
0.513196481
0.509286413
0.504398827
0.498533724
0.491691105
0.484848485
0.478005865
0.470185728
0.464320626
0.458455523
0.453567937
0.447702835
0.441837732
0.43597263
0.430107527
0.424242424
0.419354839
0.414467253
0.410557185
0.406647116
0.403714565
0.399804497
0.396871945
0.395894428
0.392961877
0.391006843
0.388074291
0.386119257
0.384164223
0.383186706
0.381231672
0.37829912
0.375366569
0.372434018
0.369501466
0.367546432
0.364613881
0.360703812
0.357771261
0.35483871
0.351906158
0.350928641
0.348973607
0.347018573
0.345063539
0.343108504
0.342130987
0.34115347
0.339198436
0.337243402
0.336265885
0.335288368
0.335288368
0.337243402
0.342130987
0.349951124
0.361681329
0.374389052
0.390029326
0.405669599
0.421309873
0.439882698
0.45943304
0.480938416
0.501466276
0.521994135
0.541544477
0.560117302
0.57771261
0.594330401
0.609970674
0.62170088
0.630498534
0.639296188
0.64516129
0.650048876
0.65200391
0.65200391
0.651026393
0.648093842
0.643206256
0.637341153
0.630498534
0.623655914
0.616813294
0.610948192
0.604105572
0.598240469
0.591397849
0.585532747
0.579667644
0.575757576
0.572825024
0.568914956
0.565004888
0.560117302
0.555229717
0.551319648
0.546432063
0.542521994
0.537634409
0.532746823
0.52688172
0.521016618
0.515151515
0.509286413
0.50342131
0.49657869
0.490713587
0.485826002
0.480938416
0.476050831
0.471163245
0.467253177
0.463343109
0.45943304
0.456500489
0.45259042
0.448680352
0.442815249
0.437927664
0.434995112
0.431085044
0.426197458
0.421309873
0.416422287
0.411534702
0.408602151
0.405669599
0.403714565
0.402737048
0.403714565
0.406647116
0.412512219
0.420332356
0.42913001
0.440860215
0.455522972
0.472140762
0.488758553
0.505376344
0.521016618
0.535679374
0.549364614
0.562072336
0.573802542
0.582600196
0.590420332
0.598240469
0.604105572
0.609970674
0.613880743
0.615835777
0.616813294
0.613880743
0.609970674
0.604105572
0.596285435
0.588465298
0.581622678
0.573802542
0.566959922
0.559139785
0.551319648
0.545454545
0.539589443
0.535679374
0.530791789
0.52688172
0.522971652
0.519061584
0.516129032
0.512218964
0.508308895
0.504398827
0.499511241
0.495601173
0.490713587
0.485826002
0.481915934
0.478983382
0.476050831
0.475073314
0.474095797
0.474095797
0.476050831
0.479960899
0.485826002
0.491691105
0.498533724
0.505376344
0.511241447
0.516129032
0.519061584
0.521016618
0.520039101
0.518084066
0.514173998
0.508308895
0.500488759
0.491691105
0.482893451
0.474095797
0.46627566
0.45943304
0.455522972
0.451612903
0.449657869
0.447702835
0.446725318
0.445747801
0.443792766
0.441837732
0.439882698
0.436950147
0.434995112
0.432062561
0.42913001
0.426197458
0.423264907
0.420332356
0.417399804
0.414467253
0.411534702
0.407624633
0.404692082
0.400782014
0.396871945
0.39198436
0.387096774
0.383186706
0.379276637
0.375366569
0.3714565
0.367546432
0.364613881
0.360703812
0.356793744
0.352883675
0.348973607
0.346041056
0.343108504
0.34115347
0.339198436
0.335288368
0.331378299
0.328445748
0.325513196
0.322580645
0.320625611
0.31769306
0.314760508
0.311827957
0.308895406
0.305962854
0.30400782
0.301075269
0.299120235
0.298142717
0.2971652
0.2971652
0.2971652
0.298142717
0.298142717
0.299120235
0.301075269
0.305962854
0.313782991
0.324535679
0.340175953
0.358748778
0.377321603
0.396871945
0.420332356
0.445747801
0.472140762
0.497556207
0.522971652
0.548387097
0.571847507
0.595307918
0.617790811
0.637341153
0.652981427
0.66568915
0.677419355
0.686217009
0.693059629
0.696969697
0.697947214
0.69599218
0.691104594
0.685239492
0.677419355
0.669599218
0.661779081
0.653958944
0.647116325
0.639296188
0.632453568
0.627565982
0.622678397
0.618768328
0.613880743
0.609970674
0.604105572
0.599217986
0.593352884
0.588465298
0.583577713
0.57771261
0.572825024
0.566959922
0.562072336
0.556207234
0.550342131
0.543499511
0.536656891
0.529814272
0.522971652
0.517106549
0.511241447
0.507331378
0.502443793
0.49657869
0.491691105
0.485826002
0.480938416
0.475073314
0.470185728
0.46627566
0.461388074
0.456500489
0.45259042
0.449657869
0.445747801
0.441837732
0.438905181
0.43597263
0.433040078
0.431085044
0.428152493
0.426197458
0.424242424
0.42228739
0.420332356
0.419354839
0.417399804
0.41544477
0.412512219
0.410557185
0.408602151
0.407624633
0.406647116
0.407624633
0.409579668
0.413489736
0.418377322
0.425219941
0.433040078
0.445747801
0.460410557
0.478005865
0.49657869
0.516129032
0.536656891
0.557184751
0.576735093
0.596285435
0.61485826
0.631476051
0.64516129
0.656891496
0.668621701
0.678396872
0.68914956
0.696969697
0.700879765
0.7028348
0.7028348
0.699902248
0.694037146
0.687194526
0.679374389
0.670576735
0.660801564
0.651026393
0.640273705
0.630498534
0.620723363
0.611925709
0.602150538
0.593352884
0.586510264
0.578690127
0.571847507
0.565004888
0.559139785
0.553274682
0.546432063
0.539589443
0.532746823
0.525904203
0.519061584
0.513196481
0.507331378
0.501466276
0.495601173
0.490713587
0.486803519
0.481915934
0.476050831
0.471163245
0.46627566
0.461388074
0.457478006
0.453567937
0.449657869
0.444770283
0.439882698
0.434017595
0.42913001
0.426197458
0.42228739
0.417399804
0.413489736
0.408602151
0.404692082
0.401759531
0.398826979
0.395894428
0.392961877
0.390029326
0.388074291
0.386119257
0.38514174
0.384164223
0.386119257
0.389051808
0.394916911
0.405669599
0.419354839
0.43597263
0.453567937
0.47311828
0.493646139
0.512218964
0.527859238
0.545454545
0.56402737
0.581622678
0.599217986
0.613880743
0.6285435
0.640273705
0.65200391
0.661779081
0.668621701
0.672531769
0.674486804
0.673509286
0.671554252
0.66568915
0.65884653
0.650048876
0.640273705
0.631476051
0.623655914
0.615835777
0.60801564
0.601173021
0.594330401
0.588465298
0.582600196
0.576735093
0.57086999
0.56402737
0.558162268
0.552297165
0.54740958
0.542521994
0.536656891
0.529814272
0.523949169
0.518084066
0.512218964
0.506353861
0.500488759
0.494623656
0.488758553
0.483870968
0.478005865
0.47311828
0.468230694
0.463343109
0.45943304
0.455522972
0.449657869
0.443792766
0.437927664
0.434995112
0.433040078
0.431085044
0.427174976
0.423264907
0.420332356
0.417399804
0.414467253
0.411534702
0.409579668
0.406647116
0.403714565
0.401759531
0.398826979
0.396871945
0.393939394
0.39198436
0.389051808
0.387096774
0.384164223
0.382209189
0.381231672
0.380254154
0.379276637
0.379276637
0.380254154
0.383186706
0.388074291
0.395894428
0.406647116
0.419354839
0.434017595
0.450635386
0.46627566
0.480938416
0.498533724
0.516129032
0.532746823
0.549364614
0.565004888
0.578690127
0.592375367
0.605083089
0.616813294
0.626588465
0.634408602
0.639296188
0.643206256
0.644183773
0.644183773
0.642228739
0.638318671
0.632453568
0.624633431
0.616813294
0.608993157
0.601173021
0.593352884
0.587487781
0.581622678
0.576735093
0.571847507
0.565982405
0.560117302
0.554252199
0.548387097
0.541544477
0.535679374
0.530791789
0.524926686
0.520039101
0.515151515
0.51026393
0.506353861
0.50342131
0.499511241
0.495601173
0.490713587
0.486803519
0.481915934
0.477028348
0.472140762
0.468230694
0.464320626
0.462365591
0.458455523
0.455522972
0.45259042
0.449657869
0.448680352
0.446725318
0.445747801
0.443792766
0.440860215
0.438905181
0.436950147
0.434995112
0.433040078
0.430107527
0.427174976
0.424242424
0.421309873
0.419354839
0.416422287
0.414467253
0.414467253
0.41544477
0.417399804
0.42228739
0.428152493
0.43597263
0.446725318
0.45943304
0.474095797
0.488758553
0.504398827
0.520039101
0.536656891
0.552297165
0.567937439
0.579667644
0.590420332
0.601173021
0.611925709
0.62170088
0.630498534
0.636363636
0.640273705
0.643206256
0.642228739
0.640273705
0.633431085
0.625610948
0.620723363
0.613880743
0.607038123
0.599217986
0.592375367
0.585532747
0.578690127
0.571847507
0.565004888
0.558162268
0.551319648
0.544477028
0.539589443
0.534701857
0.529814272
0.524926686
0.520039101
0.516129032
0.511241447
0.506353861
0.50342131
0.499511241
0.49657869
0.492668622
0.48973607
0.485826002
0.481915934
0.478005865
0.474095797
0.470185728
0.465298143
0.458455523
0.451612903
0.444770283
0.438905181
0.434017595
0.42913001
0.425219941
0.42228739
0.418377322
0.413489736
0.409579668
0.404692082
0.400782014
0.397849462
0.395894428
0.392961877
0.391006843
0.389051808
0.388074291
0.387096774
0.386119257
0.384164223
0.383186706
0.382209189
0.380254154
0.377321603
0.374389052
0.370478983
0.366568915
0.364613881
0.362658847
0.362658847
0.361681329
0.361681329
0.361681329
0.362658847
0.364613881
0.368523949
0.374389052
0.383186706
0.395894428
0.410557185
0.428152493
0.448680352
0.467253177
0.481915934
0.499511241
0.519061584
0.539589443
0.559139785
0.578690127
0.596285435
0.612903226
0.6285435
0.642228739
0.654936461
0.664711632
0.670576735
0.675464321
0.679374389
0.680351906
0.680351906
0.677419355
0.671554252
0.666666667
0.661779081
0.655913978
0.648093842
0.640273705
0.635386119
0.6285435
0.622678397
0.616813294
0.610948192
0.605083089
0.597262952
0.590420332
0.583577713
0.576735093
0.569892473
0.563049853
0.557184751
0.551319648
0.544477028
0.538611926
0.532746823
0.52688172
0.521016618
0.514173998
0.507331378
0.501466276
0.48973607
0.475073314
0.465298143
0.458455523
0.453567937
0.449657869
0.445747801
0.441837732
0.437927664
0.434017595
0.431085044
0.428152493
0.425219941
0.423264907
0.420332356
0.417399804
0.414467253
0.410557185
0.406647116
0.402737048
0.399804497
0.397849462
0.396871945
0.398826979
0.401759531
0.407624633
0.41544477
0.424242424
0.43597263
0.449657869
0.463343109
0.478005865
0.492668622
0.508308895
0.521994135
0.535679374
0.54740958
0.557184751
0.565004888
0.569892473
0.572825024
0.575757576
0.575757576
0.574780059
0.571847507
0.566959922
0.561094819
0.553274682
0.544477028
0.534701857
0.525904203
0.519061584
0.513196481
0.506353861
0.500488759
0.493646139
0.488758553
0.483870968
0.480938416
0.478005865
0.475073314
0.472140762
0.468230694
0.464320626
0.461388074
0.458455523
0.453567937
0.448680352
0.444770283
0.439882698
0.43597263
0.432062561
0.428152493
0.424242424
0.420332356
0.416422287
0.412512219
0.408602151
0.402737048
0.397849462
0.392961877
0.387096774
0.382209189
0.377321603
0.3714565
0.366568915
0.361681329
0.356793744
0.353861193
0.351906158
0.349951124
0.34799609
0.346041056
0.343108504
0.340175953
0.336265885
0.332355816
0.328445748
0.324535679
0.321603128
0.319648094
0.318670577
0.318670577
0.31769306
0.318670577
0.320625611
0.325513196
0.333333333
0.345063539
0.359726295
0.37829912
0.398826979
0.421309873
0.443792766
0.463343109
0.481915934
0.502443793
0.522971652
0.543499511
0.563049853
0.582600196
0.599217986
0.61485826
0.6285435
0.639296188
0.647116325
0.651026393
0.652981427
0.65200391
0.650048876
0.646138807
0.641251222
0.634408602
0.625610948
0.616813294
0.60801564
0.600195503
0.593352884
0.586510264
0.580645161
0.573802542
0.567937439
0.562072336
0.557184751
0.551319648
0.546432063
0.54056696
0.534701857
0.528836755
0.523949169
0.518084066
0.512218964
0.507331378
0.502443793
0.49657869
0.490713587
0.484848485
0.478983382
0.47311828
0.468230694
0.462365591
0.457478006
0.451612903
0.446725318
0.441837732
0.437927664
0.433040078
0.427174976
0.421309873
0.414467253
0.409579668
0.403714565
0.398826979
0.393939394
0.389051808
0.384164223
0.380254154
0.376344086
0.372434018
0.367546432
0.362658847
0.357771261
0.353861193
0.349951124
0.346041056
0.342130987
0.338220919
0.33431085
0.331378299
0.329423265
0.327468231
0.326490714
0.325513196
0.326490714
0.330400782
0.338220919
0.348973607
0.363636364
0.380254154
0.400782014
0.421309873
0.440860215
0.45943304
0.478983382
0.499511241
0.519061584
0.538611926
0.556207234
0.572825024
0.587487781
0.601173021
0.612903226
0.62170088
0.626588465
0.629521017
0.629521017
0.6285435
0.626588465
0.62170088
0.616813294
0.608993157
0.601173021
0.592375367
0.583577713
0.574780059
0.566959922
0.561094819
0.555229717
0.549364614
0.542521994
0.534701857
0.527859238
0.520039101
0.513196481
0.507331378
0.500488759
0.494623656
0.48973607
0.484848485
0.480938416
0.476050831
0.471163245
0.46627566
0.461388074
0.456500489
0.450635386
0.445747801
0.441837732
0.436950147
0.433040078
0.428152493
0.424242424
0.419354839
0.413489736
0.407624633
0.402737048
0.397849462
0.392961877
0.388074291
0.382209189
0.376344086
0.3714565
0.366568915
0.362658847
0.358748778
0.35483871
0.350928641
0.346041056
0.342130987
0.336265885
0.330400782
0.324535679
0.319648094
0.315738025
0.311827957
0.308895406
0.307917889
0.306940371
0.306940371
0.305962854
0.304985337
0.305962854
0.306940371
0.309872923
0.314760508
0.322580645
0.33431085
0.348973607
0.364613881
0.381231672
0.402737048
0.426197458
0.451612903
0.478005865
0.505376344
0.532746823
0.559139785
0.58455523
0.608993157
0.631476051
0.65200391
0.66568915
0.676441838
0.687194526
0.69599218
0.703812317
0.707722385
0.709677419
0.707722385
0.7028348
0.695014663
0.686217009
0.675464321
0.66568915
0.655913978
0.646138807
0.637341153
0.629521017
0.62170088
0.613880743
0.606060606
0.597262952
0.589442815
0.581622678
0.572825024
0.565004888
0.556207234
0.549364614
0.541544477
0.534701857
0.52688172
0.520039101
0.513196481
0.505376344
0.498533724
0.491691105
0.484848485
0.478983382
0.472140762
0.46627566
0.45943304
0.451612903
0.444770283
0.437927664
0.432062561
0.426197458
0.420332356
0.41544477
0.409579668
0.403714565
0.397849462
0.393939394
0.389051808
0.384164223
0.379276637
0.373411535
0.368523949
0.363636364
0.359726295
0.356793744
0.353861193
0.350928641
0.348973607
0.34799609
0.346041056
0.344086022
0.34115347
0.337243402
0.333333333
0.329423265
0.326490714
0.322580645
0.319648094
0.315738025
0.312805474
0.31085044
0.308895406
0.307917889
0.305962854
0.303030303
0.300097752
0.2971652
0.295210166
0.294232649
0.294232649
0.2971652
0.303030303
0.31085044
0.320625611
0.332355816
0.348973607
0.368523949
0.391006843
0.41544477
0.439882698
0.465298143
0.490713587
0.515151515
0.539589443
0.562072336
0.58455523
0.602150538
0.616813294
0.631476051
0.64516129
0.657869013
0.666666667
0.673509286
0.676441838
0.676441838
0.674486804
0.670576735
0.66568915
0.65884653
0.651026393
0.642228739
0.633431085
0.625610948
0.618768328
0.610948192
0.603128055
0.596285435
0.589442815
0.582600196
0.576735093
0.57086999
0.565982405
0.560117302
0.554252199
0.54740958
0.54056696
0.53372434
0.527859238
0.521016618
0.514173998
0.506353861
0.499511241
0.493646139
0.487781036
0.482893451
0.478005865
0.474095797
0.469208211
0.463343109
0.457478006
0.45259042
0.447702835
0.442815249
0.438905181
0.434017595
0.430107527
0.426197458
0.42228739
0.418377322
0.413489736
0.409579668
0.405669599
0.401759531
0.398826979
0.395894428
0.392961877
0.390029326
0.386119257
0.383186706
0.380254154
0.376344086
0.372434018
0.366568915
0.361681329
0.357771261
0.353861193
0.349951124
0.347018573
0.344086022
0.342130987
0.342130987
0.343108504
0.346041056
0.350928641
0.357771261
0.367546432
0.380254154
0.396871945
0.416422287
0.437927664
0.460410557
0.482893451
0.505376344
0.524926686
0.542521994
0.561094819
0.579667644
0.598240469
0.61485826
0.629521017
0.642228739
0.652981427
0.661779081
0.668621701
0.671554252
0.671554252
0.669599218
0.66568915
0.65884653
0.651026393
0.642228739
0.633431085
0.624633431
0.616813294
0.608993157
0.601173021
0.593352884
0.58455523
0.574780059
0.566959922
0.560117302
0.553274682
0.546432063
0.54056696
0.53372434
0.52688172
0.521016618
0.514173998
0.507331378
0.500488759
0.495601173
0.490713587
0.485826002
0.480938416
0.478005865
0.474095797
0.470185728
0.46627566
0.461388074
0.457478006
0.45259042
0.446725318
0.441837732
0.436950147
0.432062561
0.427174976
0.421309873
0.41544477
0.409579668
0.403714565
0.399804497
0.395894428
0.392961877
0.390029326
0.387096774
0.38514174
0.383186706
0.380254154
0.376344086
0.372434018
0.368523949
0.364613881
0.359726295
0.355816227
0.352883675
0.349951124
0.350928641
0.35483871
0.360703812
0.368523949
0.380254154
0.395894428
0.413489736
0.433040078
0.45259042
0.47311828
0.492668622
0.512218964
0.530791789
0.54740958
0.561094819
0.572825024
0.58455523
0.596285435
0.606060606
0.613880743
0.618768328
0.622678397
0.623655914
0.62170088
0.618768328
0.613880743
0.608993157
0.602150538
0.596285435
0.588465298
0.581622678
0.573802542
0.566959922
0.560117302
0.553274682
0.546432063
0.539589443
0.532746823
0.525904203
0.520039101
0.514173998
0.509286413
0.504398827
0.499511241
0.494623656
0.490713587
0.486803519
0.482893451
0.478005865
0.47311828
0.469208211
0.464320626
0.460410557
0.456500489
0.45259042
0.447702835
0.441837732
0.437927664
0.434017595
0.42913001
0.425219941
0.42228739
0.419354839
0.417399804
0.417399804
0.418377322
0.42228739
0.42913001
0.438905181
0.450635386
0.464320626
0.479960899
0.49657869
0.514173998
0.530791789
0.54740958
0.563049853
0.574780059
0.585532747
0.595307918
0.606060606
0.613880743
0.619745846
0.624633431
0.626588465
0.626588465
0.624633431
0.619745846
0.613880743
0.607038123
0.600195503
0.591397849
0.581622678
0.571847507
0.563049853
0.554252199
0.546432063
0.538611926
0.531769306
0.525904203
0.520039101
0.515151515
0.511241447
0.506353861
0.500488759
0.494623656
0.48973607
0.485826002
0.480938416
0.477028348
0.472140762
0.467253177
0.462365591
0.457478006
0.453567937
0.450635386
0.445747801
0.440860215
0.436950147
0.432062561
0.428152493
0.424242424
0.42228739
0.421309873
0.423264907
0.42913001
0.43597263
0.443792766
0.456500489
0.471163245
0.487781036
0.506353861
0.523949169
0.54056696
0.556207234
0.569892473
0.583577713
0.595307918
0.605083089
0.612903226
0.616813294
0.620723363
0.622678397
0.623655914
0.62170088
0.617790811
0.611925709
0.606060606
0.598240469
0.589442815
0.579667644
0.57086999
0.563049853
0.554252199
0.545454545
0.536656891
0.529814272
0.521994135
0.515151515
0.509286413
0.502443793
0.49657869
0.490713587
0.484848485
0.479960899
0.476050831
0.470185728
0.464320626
0.458455523
0.453567937
0.447702835
0.441837732
0.43597263
0.42913001
0.42228739
0.416422287
0.412512219
0.408602151
0.404692082
0.400782014
0.395894428
0.39198436
0.387096774
0.382209189
0.377321603
0.372434018
0.368523949
0.364613881
0.359726295
0.356793744
0.35483871
0.350928641
0.346041056
0.342130987
0.337243402
0.333333333
0.331378299
0.331378299
0.33431085
0.34115347
0.350928641
0.362658847
0.376344086
0.393939394
0.414467253
0.436950147
0.460410557
0.490713587
0.523949169
0.553274682
0.578690127
0.602150538
0.622678397
0.641251222
0.654936461
0.666666667
0.677419355
0.687194526
0.695014663
0.698924731
0.699902248
0.697947214
0.693059629
0.686217009
0.677419355
0.667644184
0.657869013
0.649071359
0.639296188
0.6285435
0.618768328
0.610948192
0.603128055
0.596285435
0.588465298
0.580645161
0.572825024
0.56402737
0.556207234
0.549364614
0.542521994
0.535679374
0.52688172
0.519061584
0.511241447
0.50342131
0.495601173
0.487781036
0.480938416
0.475073314
0.468230694
0.462365591
0.456500489
0.450635386
0.443792766
0.43597263
0.42913001
0.421309873
0.41544477
0.408602151
0.402737048
0.396871945
0.390029326
0.383186706
0.37829912
0.374389052
0.368523949
0.363636364
0.357771261
0.352883675
0.34799609
0.343108504
0.338220919
0.333333333
0.330400782
0.329423265
0.330400782
0.33431085
0.340175953
0.349951124
0.362658847
0.379276637
0.398826979
0.420332356
0.443792766
0.467253177
0.490713587
0.513196481
0.535679374
0.554252199
0.569892473
0.585532747
0.600195503
0.613880743
0.625610948
0.636363636
0.644183773
0.648093842
0.649071359
0.648093842
0.644183773
0.638318671
0.631476051
0.622678397
0.613880743
0.604105572
0.594330401
0.585532747
0.575757576
0.567937439
0.561094819
0.555229717
0.550342131
0.546432063
0.541544477
0.536656891
0.530791789
0.524926686
0.518084066
0.512218964
0.505376344
0.498533724
0.491691105
0.483870968
0.477028348
0.470185728
0.465298143
0.460410557
0.454545455
0.448680352
0.442815249
0.43597263
0.430107527
0.425219941
0.420332356
0.41544477
0.409579668
0.403714565
0.399804497
0.395894428
0.391006843
0.386119257
0.381231672
0.377321603
0.373411535
0.369501466
0.366568915
0.363636364
0.361681329
0.359726295
0.357771261
0.356793744
0.357771261
0.359726295
0.363636364
0.370478983
0.379276637
0.392961877
0.409579668
0.42913001
0.451612903
0.475073314
0.499511241
0.520039101
0.539589443
0.560117302
0.580645161
0.599217986
0.616813294
0.632453568
0.64516129
0.655913978
0.663734115
0.669599218
0.672531769
0.671554252
0.668621701
0.663734115
0.656891496
0.648093842
0.638318671
0.627565982
0.616813294
0.607038123
0.597262952
0.588465298
0.579667644
0.571847507
0.565004888
0.559139785
0.554252199
0.548387097
0.542521994
0.537634409
0.531769306
0.524926686
0.518084066
0.511241447
0.50342131
0.494623656
0.486803519
0.479960899
0.474095797
0.469208211
0.463343109
0.457478006
0.451612903
0.444770283
0.437927664
0.431085044
0.424242424
0.418377322
0.411534702
0.406647116
0.402737048
0.396871945
0.390029326
0.384164223
0.37829912
0.372434018
0.367546432
0.363636364
0.358748778
0.35483871
0.350928641
0.347018573
0.344086022
0.342130987
0.340175953
0.338220919
0.337243402
0.338220919
0.343108504
0.351906158
0.364613881
0.380254154
0.398826979
0.419354839
0.437927664
0.456500489
0.478005865
0.498533724
0.519061584
0.539589443
0.558162268
0.576735093
0.594330401
0.608993157
0.62170088
0.631476051
0.637341153
0.640273705
0.640273705
0.638318671
0.634408602
0.6285435
0.620723363
0.611925709
0.603128055
0.594330401
0.58455523
0.575757576
0.566959922
0.556207234
0.543499511
0.53372434
0.524926686
0.517106549
0.509286413
0.502443793
0.49657869
0.490713587
0.483870968
0.478005865
0.472140762
0.46627566
0.461388074
0.456500489
0.451612903
0.446725318
0.440860215
0.43597263
0.430107527
0.423264907
0.41544477
0.408602151
0.402737048
0.395894428
0.391006843
0.387096774
0.382209189
0.376344086
0.369501466
0.363636364
0.357771261
0.352883675
0.347018573
0.34115347
0.335288368
0.329423265
0.324535679
0.319648094
0.316715543
0.313782991
0.31085044
0.307917889
0.306940371
0.307917889
0.31085044
0.315738025
0.324535679
0.336265885
0.351906158
0.368523949
0.386119257
0.406647116
0.42913001
0.451612903
0.475073314
0.497556207
0.518084066
0.538611926
0.557184751
0.575757576
0.591397849
0.605083089
0.615835777
0.62170088
0.626588465
0.629521017
0.629521017
0.627565982
0.622678397
0.615835777
0.607038123
0.598240469
0.590420332
0.582600196
0.575757576
0.568914956
0.562072336
0.555229717
0.54740958
0.54056696
0.53372434
0.527859238
0.521994135
0.515151515
0.508308895
0.501466276
0.495601173
0.490713587
0.484848485
0.478983382
0.472140762
0.46627566
0.45943304
0.453567937
0.448680352
0.443792766
0.438905181
0.434017595
0.42913001
0.425219941
0.420332356
0.41544477
0.410557185
0.406647116
0.402737048
0.398826979
0.394916911
0.389051808
0.384164223
0.37829912
0.372434018
0.367546432
0.363636364
0.358748778
0.35483871
0.349951124
0.346041056
0.34115347
0.337243402
0.333333333
0.330400782
0.328445748
0.326490714
0.325513196
0.324535679
0.323558162
0.322580645
0.321603128
0.319648094
0.316715543
0.313782991
0.31085044
0.307917889
0.306940371
0.305962854
0.305962854
0.307917889
0.311827957
0.31769306
0.327468231
0.34115347
0.357771261
0.376344086
0.397849462
0.421309873
0.444770283
0.467253177
0.490713587
0.512218964
0.530791789
0.54740958
0.56402737
0.579667644
0.594330401
0.60801564
0.618768328
0.6285435
0.634408602
0.637341153
0.636363636
0.632453568
0.626588465
0.618768328
0.608993157
0.597262952
0.585532747
0.574780059
0.56402737
0.555229717
0.548387097
0.542521994
0.537634409
0.532746823
0.527859238
0.523949169
0.518084066
0.512218964
0.505376344
0.499511241
0.492668622
0.485826002
0.478005865
0.470185728
0.463343109
0.456500489
0.451612903
0.447702835
0.443792766
0.439882698
0.43597263
0.430107527
0.425219941
0.419354839
0.414467253
0.409579668
0.404692082
0.399804497
0.394916911
0.390029326
0.386119257
0.382209189
0.377321603
0.373411535
0.368523949
0.363636364
0.359726295
0.35483871
0.350928641
0.346041056
0.342130987
0.338220919
0.335288368
0.332355816
0.329423265
0.326490714
0.322580645
0.319648094
0.315738025
0.312805474
0.31085044
0.307917889
0.304985337
0.302052786
0.299120235
0.2971652
0.296187683
0.293255132
0.291300098
0.288367546
0.285434995
0.282502444
0.28054741
0.279569892
0.278592375
0.278592375
0.279569892
0.282502444
0.287390029
0.296187683
0.307917889
0.322580645
0.34115347
0.361681329
0.384164223
0.408602151
0.433040078
0.458455523
0.483870968
0.508308895
0.528836755
0.546432063
0.565982405
0.585532747
0.603128055
0.619745846
0.648093842
0.681329423
0.699902248
0.709677419
0.712609971
0.712609971
0.707722385
0.701857283
0.694037146
0.683284457
0.672531769
0.661779081
0.651026393
0.641251222
0.632453568
0.624633431
0.615835777
0.60801564
0.600195503
0.593352884
0.586510264
0.579667644
0.572825024
0.565982405
0.559139785
0.553274682
0.54740958
0.542521994
0.538611926
0.534701857
0.529814272
0.525904203
0.521994135
0.516129032
0.51026393
0.502443793
0.494623656
0.486803519
0.478005865
0.470185728
0.461388074
0.453567937
0.445747801
0.440860215
0.436950147
0.434995112
0.434017595
0.434995112
0.437927664
0.443792766
0.451612903
0.462365591
0.476050831
0.490713587
0.507331378
0.523949169
0.538611926
0.552297165
0.565982405
0.580645161
0.593352884
0.604105572
0.612903226
0.618768328
0.62170088
0.622678397
0.619745846
0.61485826
0.60801564
0.600195503
0.591397849
0.580645161
0.569892473
0.560117302
0.551319648
0.542521994
0.53372434
0.524926686
0.515151515
0.506353861
0.497556207
0.48973607
0.484848485
0.479960899
0.47311828
0.467253177
0.460410557
0.45259042
0.446725318
0.441837732
0.437927664
0.434017595
0.431085044
0.428152493
0.425219941
0.421309873
0.417399804
0.413489736
0.409579668
0.404692082
0.400782014
0.394916911
0.390029326
0.38514174
0.380254154
0.375366569
0.372434018
0.3714565
0.369501466
0.368523949
0.367546432
0.369501466
0.375366569
0.383186706
0.395894428
0.411534702
0.432062561
0.454545455
0.476050831
0.49657869
0.520039101
0.545454545
0.569892473
0.593352884
0.61485826
0.635386119
0.653958944
0.669599218
0.684261975
0.695014663
0.703812317
0.708699902
0.710654936
0.709677419
0.706744868
0.700879765
0.694037146
0.684261975
0.674486804
0.662756598
0.65200391
0.641251222
0.631476051
0.62170088
0.612903226
0.603128055
0.594330401
0.585532747
0.576735093
0.568914956
0.560117302
0.553274682
0.546432063
0.539589443
0.532746823
0.525904203
0.520039101
0.514173998
0.508308895
0.502443793
0.495601173
0.490713587
0.484848485
0.479960899
0.474095797
0.469208211
0.462365591
0.456500489
0.451612903
0.446725318
0.441837732
0.43597263
0.430107527
0.423264907
0.417399804
0.410557185
0.403714565
0.396871945
0.391006843
0.38514174
0.379276637
0.375366569
0.372434018
0.368523949
0.365591398
0.361681329
0.357771261
0.35483871
0.351906158
0.34799609
0.345063539
0.342130987
0.339198436
0.337243402
0.336265885
0.33431085
0.33431085
0.335288368
0.339198436
0.345063539
0.35483871
0.368523949
0.387096774
0.408602151
0.433040078
0.460410557
0.484848485
0.508308895
0.53372434
0.561094819
0.586510264
0.610948192
0.633431085
0.652981427
0.670576735
0.686217009
0.697947214
0.707722385
0.714565005
0.717497556
0.718475073
0.717497556
0.712609971
0.706744868
0.698924731
0.690127077
0.679374389
0.668621701
0.656891496
0.647116325
0.638318671
0.629521017
0.620723363
0.612903226
0.605083089
0.596285435
0.588465298
0.579667644
0.571847507
0.563049853
0.555229717
0.54740958
0.541544477
0.535679374
0.530791789
0.524926686
0.518084066
0.511241447
0.50342131
0.495601173
0.487781036
0.480938416
0.474095797
0.46627566
0.457478006
0.449657869
0.434017595
0.414467253
0.400782014
0.390029326
0.381231672
0.372434018
0.364613881
0.356793744
0.349951124
0.343108504
0.337243402
0.331378299
0.326490714
0.322580645
0.316715543
0.31085044
0.304985337
0.299120235
0.293255132
0.288367546
0.285434995
0.284457478
0.283479961
0.283479961
0.283479961
0.282502444
0.28054741
0.278592375
0.276637341
0.274682307
0.274682307
0.274682307
0.277614858
0.282502444
0.289345064
0.301075269
0.315738025
0.332355816
0.350928641
0.373411535
0.400782014
0.42913001
0.45943304
0.488758553
0.517106549
0.543499511
0.568914956
0.592375367
0.61485826
0.632453568
0.646138807
0.65884653
0.670576735
0.679374389
0.686217009
0.690127077
0.690127077
0.688172043
0.683284457
0.675464321
0.666666667
0.654936461
0.644183773
0.634408602
0.623655914
0.613880743
0.604105572
0.595307918
0.586510264
0.57771261
0.57086999
0.563049853
0.554252199
0.545454545
0.537634409
0.529814272
0.521016618
0.513196481
0.505376344
0.497556207
0.490713587
0.482893451
0.475073314
0.468230694
0.461388074
0.455522972
0.449657869
0.445747801
0.441837732
0.439882698
0.436950147
0.434995112
0.433040078
0.430107527
0.426197458
0.420332356
0.413489736
0.405669599
0.397849462
0.39198436
0.38514174
0.377321603
0.368523949
0.360703812
0.351906158
0.345063539
0.339198436
0.333333333
0.327468231
0.322580645
0.316715543
0.311827957
0.307917889
0.306940371
0.304985337
0.303030303
0.301075269
0.299120235
0.299120235
0.301075269
0.305962854
0.315738025
0.330400782
0.348973607
0.367546432
0.388074291
0.411534702
0.436950147
0.463343109
0.48973607
0.517106549
0.542521994
0.565982405
0.589442815
0.609970674
0.629521017
0.646138807
0.65884653
0.666666667
0.673509286
0.678396872
0.679374389
0.677419355
0.671554252
0.662756598
0.65200391
0.640273705
0.6285435
0.616813294
0.606060606
0.596285435
0.587487781
0.579667644
0.571847507
0.56402737
0.556207234
0.548387097
0.539589443
0.530791789
0.521994135
0.513196481
0.505376344
0.498533724
0.492668622
0.484848485
0.477028348
0.469208211
0.462365591
0.456500489
0.450635386
0.444770283
0.438905181
0.432062561
0.424242424
0.416422287
0.410557185
0.402737048
0.395894428
0.388074291
0.381231672
0.373411535
0.366568915
0.360703812
0.355816227
0.351906158
0.347018573
0.344086022
0.342130987
0.34115347
0.340175953
0.339198436
0.338220919
0.336265885
0.33431085
0.333333333
0.331378299
0.328445748
0.325513196
0.320625611
0.31769306
0.314760508
0.31085044
0.305962854
0.300097752
0.296187683
0.293255132
0.293255132
0.295210166
0.302052786
0.314760508
0.330400782
0.350928641
0.3714565
0.393939394
0.419354839
0.447702835
0.476050831
0.504398827
0.532746823
0.560117302
0.58455523
0.607038123
0.626588465
0.644183773
0.655913978
0.664711632
0.672531769
0.678396872
0.681329423
0.680351906
0.677419355
0.670576735
0.662756598
0.653958944
0.643206256
0.631476051
0.620723363
0.609970674
0.600195503
0.590420332
0.580645161
0.57086999
0.561094819
0.551319648
0.542521994
0.532746823
0.523949169
0.515151515
0.507331378
0.500488759
0.494623656
0.487781036
0.480938416
0.47311828
0.464320626
0.456500489
0.453567937
0.451612903
0.448680352
0.443792766
0.436950147
0.431085044
0.426197458
0.421309873
0.41544477
0.411534702
0.406647116
0.402737048
0.396871945
0.39198436
0.386119257
0.380254154
0.376344086
0.3714565
0.368523949
0.365591398
0.360703812
0.356793744
0.353861193
0.350928641
0.348973607
0.347018573
0.345063539
0.345063539
0.344086022
0.344086022
0.345063539
0.346041056
0.345063539
0.344086022
0.342130987
0.34115347
0.34115347
0.342130987
0.344086022
0.349951124
0.357771261
0.370478983
0.388074291
0.405669599
0.425219941
0.449657869
0.477028348
0.506353861
0.535679374
0.56402737
0.592375367
0.619745846
0.64516129
0.669599218
0.692082111
0.707722385
0.720430108
0.73313783
0.744868035
0.753665689
0.759530792
0.761485826
0.759530792
0.754643206
0.746823069
0.735092864
0.722385142
0.709677419
0.696969697
0.685239492
0.675464321
0.664711632
0.655913978
0.647116325
0.638318671
0.630498534
0.62170088
0.612903226
0.602150538
0.592375367
0.583577713
0.574780059
0.565982405
0.556207234
0.54740958
0.538611926
0.530791789
0.521994135
0.514173998
0.506353861
0.498533724
0.490713587
0.483870968
0.478005865
0.47311828
0.46627566
0.460410557
0.453567937
0.445747801
0.437927664
0.430107527
0.421309873
0.414467253
0.407624633
0.401759531
0.396871945
0.393939394
0.389051808
0.38514174
0.381231672
0.377321603
0.373411535
0.369501466
0.365591398
0.361681329
0.357771261
0.353861193
0.351906158
0.349951124
0.348973607
0.348973607
0.348973607
0.349951124
0.353861193
0.360703812
0.3714565
0.386119257
0.405669599
0.428152493
0.453567937
0.477028348
0.500488759
0.52688172
0.554252199
0.581622678
0.60801564
0.632453568
0.653958944
0.674486804
0.692082111
0.707722385
0.71945259
0.729227761
0.734115347
0.734115347
0.73313783
0.729227761
0.721407625
0.711632454
0.699902248
0.687194526
0.672531769
0.659824047
0.647116325
0.634408602
0.623655914
0.612903226
0.604105572
0.595307918
0.585532747
0.575757576
0.566959922
0.559139785
0.550342131
0.54056696
0.532746823
0.524926686
0.516129032
0.509286413
0.50342131
0.49657869
0.488758553
0.481915934
0.475073314
0.469208211
0.461388074
0.453567937
0.444770283
0.436950147
0.428152493
0.42228739
0.416422287
0.409579668
0.403714565
0.397849462
0.391006843
0.384164223
0.376344086
0.369501466
0.361681329
0.355816227
0.349951124
0.346041056
0.343108504
0.342130987
0.339198436
0.336265885
0.333333333
0.330400782
0.326490714
0.324535679
0.321603128
0.319648094
0.31769306
0.316715543
0.31769306
0.322580645
0.329423265
0.339198436
0.352883675
0.3714565
0.395894428
0.424242424
0.455522972
0.488758553
0.521016618
0.552297165
0.57771261
0.600195503
0.624633431
0.649071359
0.672531769
0.694037146
0.712609971
0.728250244
0.740957967
0.749755621
0.754643206
0.754643206
0.751710655
0.744868035
0.737047898
0.72629521
0.714565005
0.700879765
0.688172043
0.674486804
0.662756598
0.650048876
0.638318671
0.626588465
0.61485826
0.604105572
0.595307918
0.585532747
0.575757576
0.565982405
0.555229717
0.543499511
0.532746823
0.522971652
0.514173998
0.505376344
0.497556207
0.488758553
0.481915934
0.468230694
0.449657869
0.437927664
0.428152493
0.418377322
0.409579668
0.402737048
0.395894428
0.391006843
0.386119257
0.382209189
0.380254154
0.37829912
0.375366569
0.373411535
0.3714565
0.368523949
0.365591398
0.361681329
0.358748778
0.35483871
0.348973607
0.344086022
0.338220919
0.33431085
0.332355816
0.329423265
0.326490714
0.323558162
0.321603128
0.318670577
0.316715543
0.315738025
0.315738025
0.31769306
0.321603128
0.326490714
0.33431085
0.346041056
0.361681329
0.381231672
0.403714565
0.42913001
0.455522972
0.483870968
0.511241447
0.537634409
0.563049853
0.587487781
0.60801564
0.624633431
0.643206256
0.660801564
0.677419355
0.692082111
0.703812317
0.712609971
0.717497556
0.71945259
0.717497556
0.713587488
0.707722385
0.699902248
0.691104594
0.680351906
0.669599218
0.659824047
0.649071359
0.639296188
0.630498534
0.62170088
0.611925709
0.603128055
0.594330401
0.58455523
0.575757576
0.565982405
0.556207234
0.54740958
0.537634409
0.528836755
0.520039101
0.511241447
0.502443793
0.494623656
0.487781036
0.480938416
0.475073314
0.469208211
0.462365591
0.455522972
0.448680352
0.441837732
0.434017595
0.426197458
0.417399804
0.409579668
0.400782014
0.393939394
0.390029326
0.386119257
0.383186706
0.379276637
0.376344086
0.372434018
0.369501466
0.364613881
0.359726295
0.355816227
0.351906158
0.34799609
0.345063539
0.344086022
0.342130987
0.342130987
0.344086022
0.34799609
0.355816227
0.366568915
0.380254154
0.398826979
0.419354839
0.441837732
0.46627566
0.486803519
0.506353861
0.528836755
0.550342131
0.571847507
0.592375367
0.610948192
0.627565982
0.641251222
0.651026393
0.65884653
0.662756598
0.663734115
0.662756598
0.659824047
0.653958944
0.647116325
0.638318671
0.627565982
0.616813294
0.606060606
0.596285435
0.587487781
0.57771261
0.568914956
0.560117302
0.553274682
0.54740958
0.541544477
0.536656891
0.530791789
0.523949169
0.516129032
0.507331378
0.499511241
0.491691105
0.483870968
0.478005865
0.472140762
0.467253177
0.461388074
0.456500489
0.451612903
0.446725318
0.442815249
0.440860215
0.439882698
0.440860215
0.444770283
0.45259042
0.461388074
0.471163245
0.484848485
0.500488759
0.515151515
0.530791789
0.544477028
0.556207234
0.565004888
0.57086999
0.573802542
0.573802542
0.571847507
0.566959922
0.560117302
0.552297165
0.542521994
0.530791789
0.519061584
0.508308895
0.49657869
0.486803519
0.478005865
0.470185728
0.464320626
0.458455523
0.451612903
0.446725318
0.442815249
0.437927664
0.433040078
0.428152493
0.423264907
0.417399804
0.410557185
0.402737048
0.394916911
0.389051808
0.383186706
0.377321603
0.370478983
0.363636364
0.356793744
0.349951124
0.342130987
0.336265885
0.330400782
0.324535679
0.319648094
0.316715543
0.313782991
0.31085044
0.306940371
0.303030303
0.299120235
0.295210166
0.290322581
0.285434995
0.28054741
0.275659824
0.272727273
0.268817204
0.265884653
0.264907136
0.260997067
0.257086999
0.252199413
0.246334311
0.239491691
0.233626588
0.228739003
0.225806452
0.2228739
0.219941349
0.219941349
0.219941349
0.218963832
0.219941349
0.221896383
0.226783969
0.235581623
0.250244379
0.285434995
0.332355816
0.370478983
0.404692082
0.438905181
0.470185728
0.498533724
0.531769306
0.566959922
0.601173021
0.634408602
0.66568915
0.694037146
0.720430108
0.741935484
0.759530792
0.773216031
0.780058651
0.782991202
0.782013685
0.779081134
0.771260997
0.759530792
0.745845552
0.731182796
0.716520039
0.701857283
0.688172043
0.676441838
0.66568915
0.657869013
0.65200391
0.646138807
0.642228739
0.638318671
0.633431085
0.6285435
0.620723363
0.611925709
0.601173021
0.588465298
0.573802542
0.560117302
0.545454545
0.529814272
0.514173998
0.498533724
0.483870968
0.470185728
0.457478006
0.446725318
0.436950147
0.428152493
0.419354839
0.410557185
0.404692082
0.399804497
0.393939394
0.389051808
0.384164223
0.380254154
0.375366569
0.3714565
0.367546432
0.362658847
0.356793744
0.350928641
0.347018573
0.344086022
0.339198436
0.33431085
0.327468231
0.319648094
0.309872923
0.298142717
0.285434995
0.271749756
0.258064516
0.24340176
0.228739003
0.217008798
0.206256109
0.194525904
0.181818182
0.171065494
0.161290323
0.153470186
0.150537634
0.153470186
0.16226784
0.175953079
0.197458456
0.219941349
0.246334311
0.279569892
0.316715543
0.355816227
0.393939394
0.430107527
0.463343109
0.492668622
0.517106549
0.537634409
0.553274682
0.565982405
0.575757576
0.582600196
0.588465298
0.591397849
0.591397849
0.587487781
0.580645161
0.569892473
0.556207234
0.539589443
0.523949169
0.508308895
0.494623656
0.483870968
0.474095797
0.464320626
0.456500489
0.446725318
0.437927664
0.42913001
0.420332356
0.410557185
0.399804497
0.388074291
0.377321603
0.368523949
0.360703812
0.352883675
0.346041056
0.34115347
0.338220919
0.337243402
0.336265885
0.335288368
0.335288368
0.335288368
0.336265885
0.337243402
0.338220919
0.339198436
0.339198436
0.337243402
0.333333333
0.327468231
0.319648094
0.31085044
0.30400782
0.299120235
0.296187683
0.294232649
0.294232649
0.294232649
0.292277615
0.288367546
0.283479961
0.279569892
0.277614858
0.279569892
0.286412512
0.299120235
0.316715543
0.339198436
0.361681329
0.384164223
0.408602151
0.432062561
0.454545455
0.476050831
0.495601173
0.516129032
0.534701857
0.553274682
0.57086999
0.585532747
0.596285435
0.603128055
0.608993157
0.612903226
0.616813294
0.620723363
0.624633431
0.630498534
0.637341153
0.642228739
0.646138807
0.646138807
0.642228739
0.634408602
0.623655914
0.609970674
0.595307918
0.579667644
0.565004888
0.552297165
0.541544477
0.53372434
0.525904203
0.519061584
0.513196481
0.507331378
0.501466276
0.493646139
0.485826002
0.478005865
0.468230694
0.45943304
0.450635386
0.442815249
0.43597263
0.42913001
0.423264907
0.417399804
0.413489736
0.408602151
0.403714565
0.397849462
0.391006843
0.383186706
0.374389052
0.364613881
0.353861193
0.344086022
0.33431085
0.325513196
0.319648094
0.315738025
0.312805474
0.31085044
0.308895406
0.308895406
0.308895406
0.308895406
0.309872923
0.313782991
0.319648094
0.329423265
0.342130987
0.355816227
0.370478983
0.388074291
0.408602151
0.42913001
0.450635386
0.47311828
0.495601173
0.517106549
0.536656891
0.554252199
0.568914956
0.578690127
0.585532747
0.586510264
0.582600196
0.578690127
0.573802542
0.567937439
0.563049853
0.557184751
0.553274682
0.551319648
0.551319648
0.553274682
0.556207234
0.560117302
0.565982405
0.571847507
0.576735093
0.581622678
0.585532747
0.587487781
0.587487781
0.586510264
0.58455523
0.583577713
0.582600196
0.581622678
0.581622678
0.581622678
0.581622678
0.581622678
0.582600196
0.583577713
0.583577713
0.583577713
0.583577713
0.583577713
0.583577713
0.583577713
0.583577713
0.58455523
0.585532747
0.587487781
0.587487781
0.586510264
0.58455523
0.580645161
0.576735093
0.572825024
0.57086999
0.569892473
0.57086999
0.575757576
0.583577713
0.593352884
0.606060606
0.619745846
0.635386119
0.65200391
0.669599218
0.687194526
0.703812317
0.720430108
0.734115347
0.744868035
0.75659824
0.768328446
0.781036168
0.791788856
0.803519062
0.813294233
0.822091887
0.829912023
0.834799609
0.836754643
0.835777126
0.831867058
0.826979472
0.82111437
0.81427175
0.806451613
0.797653959
0.788856305
0.781036168
0.771260997
0.762463343
0.752688172
0.742913001
0.732160313
0.721407625
0.709677419
0.69599218
0.68230694
0.667644184
0.65200391
0.636363636
0.62170088
0.609970674
0.600195503
0.594330401
0.590420332
0.589442815
0.590420332
0.592375367
0.595307918
0.597262952
0.599217986
0.601173021
0.601173021
0.601173021
0.598240469
0.594330401
0.587487781
0.580645161
0.572825024
0.563049853
0.552297165
0.54056696
0.529814272
0.518084066
0.506353861
0.493646139
0.479960899
0.464320626
0.447702835
0.433040078
0.419354839
0.403714565
0.388074291
0.374389052
0.363636364
0.35483871
0.34799609
0.345063539
0.344086022
0.345063539
0.347018573
0.350928641
0.35483871
0.360703812
0.366568915
0.374389052
0.383186706
0.39198436
0.402737048
0.414467253
0.425219941
0.434995112
0.444770283
0.454545455
0.462365591
0.469208211
0.474095797
0.478005865
0.480938416
0.480938416
0.478005865
0.47311828
0.46627566
0.458455523
0.449657869
0.439882698
0.432062561
0.426197458
0.419354839
0.414467253
0.409579668
0.406647116
0.405669599
0.406647116
0.408602151
0.410557185
0.412512219
0.413489736
0.412512219
0.411534702
0.409579668
0.405669599
0.400782014
0.395894428
0.39198436
0.388074291
0.38514174
0.383186706
0.381231672
0.380254154
0.379276637
0.379276637
0.380254154
0.381231672
0.382209189
0.383186706
0.384164223
0.383186706
0.382209189
0.379276637
0.375366569
0.3714565
0.365591398
0.358748778
0.353861193
0.348973607
0.343108504
0.337243402
0.332355816
0.328445748
0.325513196
0.324535679
0.323558162
0.323558162
0.324535679
0.324535679
0.325513196
0.325513196
0.325513196
0.325513196
0.324535679
0.323558162
0.322580645
0.321603128
0.321603128
0.321603128
0.322580645
0.322580645
0.322580645
0.322580645
0.323558162
0.323558162
0.323558162
0.323558162
0.324535679
0.327468231
0.331378299
0.336265885
0.344086022
0.353861193
0.364613881
0.377321603
0.389051808
0.402737048
0.417399804
0.433040078
0.448680352
0.464320626
0.479960899
0.495601173
0.51026393
0.523949169
0.536656891
0.549364614
0.559139785
0.567937439
0.576735093
0.585532747
0.593352884
0.600195503
0.604105572
0.606060606
0.583577713
0.549364614
0.530791789
0.519061584
0.512218964
0.507331378
0.504398827
0.501466276
0.498533724
0.49657869
0.493646139
0.490713587
0.486803519
0.482893451
0.478005865
0.472140762
0.467253177
0.462365591
0.458455523
0.453567937
0.448680352
0.444770283
0.439882698
0.43597263
0.432062561
0.42913001
0.426197458
0.424242424
0.42228739
0.421309873
0.419354839
0.418377322
0.41544477
0.413489736
0.410557185
0.408602151
0.406647116
0.404692082
0.402737048
0.400782014
0.399804497
0.398826979
0.397849462
0.396871945
0.395894428
0.393939394
0.39198436
0.389051808
0.386119257
0.384164223
0.381231672
0.379276637
0.376344086
0.373411535
0.3714565
0.369501466
0.366568915
0.364613881
0.362658847
0.360703812
0.359726295
0.359726295
0.360703812
0.362658847
0.365591398
0.369501466
0.374389052
0.380254154
0.387096774
0.394916911
0.403714565
0.414467253
0.424242424
0.434995112
0.443792766
0.453567937
0.461388074
0.469208211
0.477028348
0.482893451
0.487781036
0.492668622
0.498533724
0.502443793
0.507331378
0.51026393
0.513196481
0.514173998
0.515151515
0.514173998
0.514173998
0.513196481
0.511241447
0.51026393
0.508308895
0.506353861
0.505376344
0.50342131
0.500488759
0.49657869
0.492668622
0.487781036
0.483870968
0.478983382
0.475073314
0.471163245
0.467253177
0.464320626
0.460410557
0.457478006
0.454545455
0.450635386
0.448680352
0.445747801
0.443792766
0.441837732
0.440860215
0.438905181
0.437927664
0.436950147
0.434995112
0.433040078
0.431085044
0.428152493
0.426197458
0.423264907
0.420332356
0.417399804
0.414467253
0.412512219
0.409579668
0.407624633
0.404692082
0.402737048
0.400782014
0.398826979
0.396871945
0.394916911
0.392961877
0.391006843
0.389051808
0.387096774
0.386119257
0.38514174
0.383186706
0.382209189
0.381231672
0.379276637
0.37829912
0.377321603
0.376344086
0.375366569
0.374389052
0.375366569
0.376344086
0.379276637
0.383186706
0.388074291
0.393939394
0.400782014
0.408602151
0.416422287
0.426197458
0.434995112
0.443792766
0.45259042
0.460410557
0.467253177
0.475073314
0.481915934
0.488758553
0.495601173
0.501466276
0.507331378
0.511241447
0.514173998
0.516129032
0.516129032
0.515151515
0.513196481
0.511241447
0.508308895
0.505376344
0.501466276
0.497556207
0.493646139
0.48973607
0.486803519
0.482893451
0.479960899
0.477028348
0.47311828
0.470185728
0.467253177
0.463343109
0.460410557
0.456500489
0.453567937
0.449657869
0.446725318
0.444770283
0.442815249
0.439882698
0.437927664
0.434995112
0.433040078
0.430107527
0.427174976
0.424242424
0.420332356
0.416422287
0.413489736
0.409579668
0.406647116
0.403714565
0.401759531
0.399804497
0.397849462
0.395894428
0.393939394
0.391006843
0.389051808
0.386119257
0.384164223
0.382209189
0.380254154
0.377321603
0.375366569
0.372434018
0.3714565
0.370478983
0.369501466
0.367546432
0.366568915
0.365591398
0.364613881
0.363636364
0.361681329
0.360703812
0.359726295
0.358748778
0.358748778
0.358748778
0.357771261
0.356793744
0.35483871
0.352883675
0.351906158
0.350928641
0.349951124
0.348973607
0.349951124
0.350928641
0.353861193
0.357771261
0.361681329
0.367546432
0.377321603
0.39198436
0.409579668
0.428152493
0.447702835
0.468230694
0.487781036
0.508308895
0.528836755
0.546432063
0.562072336
0.578690127
0.594330401
0.608993157
0.62170088
0.631476051
0.639296188
0.644183773
0.64516129
0.644183773
0.641251222
0.636363636
0.631476051
0.624633431
0.618768328
0.611925709
0.604105572
0.597262952
0.590420332
0.582600196
0.575757576
0.569892473
0.56402737
0.559139785
0.555229717
0.552297165
0.549364614
0.544477028
0.539589443
0.534701857
0.529814272
0.523949169
0.518084066
0.512218964
0.505376344
0.498533724
0.491691105
0.486803519
0.481915934
0.478005865
0.47311828
0.468230694
0.463343109
0.458455523
0.45259042
0.446725318
0.441837732
0.436950147
0.431085044
0.427174976
0.42228739
0.417399804
0.412512219
0.408602151
0.403714565
0.399804497
0.394916911
0.391006843
0.388074291
0.384164223
0.381231672
0.37829912
0.376344086
0.375366569
0.374389052
0.372434018
0.369501466
0.366568915
0.363636364
0.360703812
0.357771261
0.35483871
0.352883675
0.352883675
0.353861193
0.355816227
0.360703812
0.368523949
0.379276637
0.392961877
0.408602151
0.427174976
0.445747801
0.465298143
0.482893451
0.500488759
0.514173998
0.52688172
0.54056696
0.553274682
0.565004888
0.576735093
0.586510264
0.595307918
0.602150538
0.607038123
0.608993157
0.609970674
0.60801564
0.605083089
0.600195503
0.594330401
0.587487781
0.580645161
0.573802542
0.565982405
0.560117302
0.554252199
0.548387097
0.542521994
0.536656891
0.532746823
0.529814272
0.52688172
0.523949169
0.521016618
0.517106549
0.512218964
0.508308895
0.502443793
0.49657869
0.48973607
0.484848485
0.480938416
0.478005865
0.475073314
0.472140762
0.468230694
0.464320626
0.45943304
0.454545455
0.449657869
0.445747801
0.441837732
0.438905181
0.43597263
0.434017595
0.431085044
0.428152493
0.424242424
0.420332356
0.416422287
0.412512219
0.407624633
0.403714565
0.399804497
0.396871945
0.393939394
0.391006843
0.389051808
0.388074291
0.386119257
0.384164223
0.380254154
0.376344086
0.372434018
0.368523949
0.364613881
0.361681329
0.358748778
0.355816227
0.353861193
0.352883675
0.350928641
0.349951124
0.348973607
0.347018573
0.346041056
0.344086022
0.343108504
0.34115347
0.340175953
0.339198436
0.337243402
0.336265885
0.336265885
0.335288368
0.33431085
0.33431085
0.335288368
0.338220919
0.343108504
0.349951124
0.359726295
0.373411535
0.390029326
0.405669599
0.42228739
0.441837732
0.462365591
0.482893451
0.502443793
0.521016618
0.538611926
0.555229717
0.57086999
0.58455523
0.597262952
0.608993157
0.616813294
0.622678397
0.6285435
0.633431085
0.636363636
0.637341153
0.637341153
0.635386119
0.631476051
0.627565982
0.622678397
0.617790811
0.612903226
0.608993157
0.603128055
0.598240469
0.593352884
0.589442815
0.58455523
0.580645161
0.576735093
0.572825024
0.569892473
0.565982405
0.561094819
0.556207234
0.552297165
0.54740958
0.541544477
0.535679374
0.529814272
0.522971652
0.517106549
0.511241447
0.504398827
0.497556207
0.491691105
0.486803519
0.482893451
0.478005865
0.47311828
0.468230694
0.463343109
0.458455523
0.45259042
0.447702835
0.439882698
0.432062561
0.425219941
0.419354839
0.414467253
0.411534702
0.408602151
0.405669599
0.401759531
0.398826979
0.394916911
0.39198436
0.388074291
0.38514174
0.382209189
0.380254154
0.37829912
0.376344086
0.374389052
0.372434018
0.370478983
0.369501466
0.370478983
0.373411535
0.37829912
0.388074291
0.400782014
0.417399804
0.43597263
0.453567937
0.471163245
0.490713587
0.51026393
0.529814272
0.548387097
0.565004888
0.580645161
0.594330401
0.607038123
0.616813294
0.623655914
0.6285435
0.630498534
0.631476051
0.629521017
0.625610948
0.620723363
0.613880743
0.606060606
0.599217986
0.591397849
0.583577713
0.574780059
0.566959922
0.561094819
0.554252199
0.549364614
0.544477028
0.54056696
0.536656891
0.53372434
0.528836755
0.523949169
0.520039101
0.515151515
0.51026393
0.506353861
0.502443793
0.497556207
0.492668622
0.488758553
0.484848485
0.480938416
0.477028348
0.47311828
0.469208211
0.465298143
0.462365591
0.45943304
0.456500489
0.453567937
0.449657869
0.445747801
0.441837732
0.437927664
0.434995112
0.432062561
0.430107527
0.427174976
0.424242424
0.421309873
0.419354839
0.417399804
0.414467253
0.410557185
0.406647116
0.402737048
0.398826979
0.395894428
0.392961877
0.390029326
0.388074291
0.386119257
0.386119257
0.387096774
0.390029326
0.395894428
0.405669599
0.418377322
0.434017595
0.451612903
0.480938416
0.501466276
0.522971652
0.552297165
0.568914956
0.586510264
0.603128055
0.620723363
0.636363636
0.651026393
0.663734115
0.674486804
0.68230694
0.687194526
0.690127077
0.690127077
0.687194526
0.68230694
0.675464321
0.668621701
0.660801564
0.652981427
0.646138807
0.639296188
0.632453568
0.626588465
0.620723363
0.61485826
0.609970674
0.605083089
0.601173021
0.597262952
0.593352884
0.588465298
0.582600196
0.57771261
0.572825024
0.567937439
0.56402737
0.560117302
0.557184751
0.554252199
0.550342131
0.54740958
0.543499511
0.538611926
0.532746823
0.524926686
0.519061584
0.513196481
0.501466276
0.495601173
0.491691105
0.485826002
0.482893451
0.478983382
0.475073314
0.471163245
0.467253177
0.464320626
0.462365591
0.461388074
0.460410557
0.461388074
0.461388074
0.461388074
0.45943304
0.457478006
0.453567937
0.450635386
0.447702835
0.445747801
0.445747801
0.447702835
0.45259042
0.461388074
0.472140762
0.484848485
0.500488759
0.519061584
0.538611926
0.558162268
0.576735093
0.595307918
0.612903226
0.6285435
0.642228739
0.654936461
0.664711632
0.671554252
0.679374389
0.685239492
0.690127077
0.693059629
0.693059629
0.692082111
0.688172043
0.68230694
0.676441838
0.669599218
0.661779081
0.654936461
0.648093842
0.641251222
0.634408602
0.626588465
0.618768328
0.611925709
0.606060606
0.601173021
0.596285435
0.592375367
0.588465298
0.58455523
0.581622678
0.578690127
0.574780059
0.57086999
0.566959922
0.56402737
0.562072336
0.561094819
0.560117302
0.557184751
0.555229717
0.552297165
0.549364614
0.545454545
0.541544477
0.536656891
0.530791789
0.525904203
0.520039101
0.515151515
0.509286413
0.50342131
0.49657869
0.48973607
0.484848485
0.480938416
0.477028348
0.461388074
0.438905181
0.425219941
0.41544477
0.406647116
0.400782014
0.394916911
0.390029326
0.38514174
0.382209189
0.382209189
0.384164223
0.389051808
0.396871945
0.409579668
0.427174976
0.447702835
0.472140762
0.499511241
0.528836755
0.558162268
0.587487781
0.611925709
0.633431085
0.654936461
0.675464321
0.695014663
0.713587488
0.731182796
0.746823069
0.759530792
0.771260997
0.779081134
0.782991202
0.782991202
0.779081134
0.771260997
0.761485826
0.747800587
0.735092864
0.723362659
0.711632454
0.701857283
0.692082111
0.68230694
0.673509286
0.666666667
0.660801564
0.656891496
0.652981427
0.647116325
0.641251222
0.634408602
0.627565982
0.620723363
0.613880743
0.607038123
0.599217986
0.592375367
0.586510264
0.581622678
0.575757576
0.569892473
0.56402737
0.558162268
0.553274682
0.548387097
0.542521994
0.536656891
0.529814272
0.521994135
0.515151515
0.509286413
0.504398827
0.497556207
0.491691105
0.484848485
0.478005865
0.471163245
0.464320626
0.458455523
0.453567937
0.448680352
0.445747801
0.444770283
0.443792766
0.440860215
0.436950147
0.433040078
0.428152493
0.423264907
0.419354839
0.414467253
0.409579668
0.404692082
0.400782014
0.395894428
0.392961877
0.389051808
0.384164223
0.380254154
0.375366569
0.372434018
0.369501466
0.367546432
0.364613881
0.362658847
0.360703812
0.357771261
0.356793744
0.356793744
0.358748778
0.363636364
0.374389052
0.390029326
0.412512219
0.438905181
0.469208211
0.502443793
0.536656891
0.57086999
0.605083089
0.634408602
0.660801564
0.68914956
0.717497556
0.744868035
0.77028348
0.792766373
0.813294233
0.830889541
0.845552297
0.857282502
0.865102639
0.868035191
0.868035191
0.865102639
0.860215054
0.853372434
0.845552297
0.836754643
0.826979472
0.817204301
0.808406647
0.799608993
0.792766373
0.784946237
0.778103617
0.771260997
0.76344086
0.753665689
0.744868035
0.735092864
0.72629521
0.716520039
0.707722385
0.697947214
0.68914956
0.680351906
0.671554252
0.663734115
0.656891496
0.650048876
0.644183773
0.637341153
0.630498534
0.623655914
0.616813294
0.609970674
0.602150538
0.596285435
0.590420332
0.586510264
0.582600196
0.57771261
0.572825024
0.566959922
0.561094819
0.555229717
0.548387097
0.541544477
0.534701857
0.527859238
0.521016618
0.517106549
0.512218964
0.507331378
0.500488759
0.493646139
0.486803519
0.481915934
0.478005865
0.477028348
0.480938416
0.487781036
0.499511241
0.513196481
0.527859238
0.543499511
0.56402737
0.586510264
0.610948192
0.637341153
0.661779081
0.686217009
0.708699902
0.730205279
0.749755621
0.766373412
0.778103617
0.785923754
0.792766373
0.797653959
0.799608993
0.797653959
0.793743891
0.785923754
0.776148583
0.765395894
0.754643206
0.744868035
0.735092864
0.727272727
0.71945259
0.711632454
0.7028348
0.694037146
0.685239492
0.678396872
0.670576735
0.664711632
0.65884653
0.65200391
0.646138807
0.640273705
0.634408602
0.627565982
0.620723363
0.613880743
0.607038123
0.599217986
0.591397849
0.582600196
0.574780059
0.567937439
0.561094819
0.556207234
0.552297165
0.546432063
0.539589443
0.530791789
0.522971652
0.515151515
0.508308895
0.501466276
0.493646139
0.465298143
0.426197458
0.404692082
0.39198436
0.383186706
0.376344086
0.3714565
0.368523949
0.366568915
0.366568915
0.364613881
0.362658847
0.358748778
0.355816227
0.349951124
0.346041056
0.34115347
0.335288368
0.328445748
0.321603128
0.316715543
0.313782991
0.31085044
0.308895406
0.306940371
0.304985337
0.303030303
0.303030303
0.303030303
0.304985337
0.306940371
0.31085044
0.31769306
0.328445748
0.344086022
0.362658847
0.384164223
0.409579668
0.436950147
0.465298143
0.48973607
0.512218964
0.537634409
0.563049853
0.588465298
0.611925709
0.634408602
0.654936461
0.673509286
0.68914956
0.701857283
0.711632454
0.71945259
0.723362659
0.723362659
0.721407625
0.718475073
0.712609971
0.705767351
0.698924731
0.691104594
0.683284457
0.675464321
0.666666667
0.65884653
0.651026393
0.643206256
0.636363636
0.6285435
0.619745846
0.610948192
0.603128055
0.595307918
0.587487781
0.580645161
0.572825024
0.565982405
0.558162268
0.551319648
0.545454545
0.54056696
0.535679374
0.529814272
0.524926686
0.519061584
0.513196481
0.506353861
0.498533724
0.490713587
0.482893451
0.477028348
0.472140762
0.467253177
0.462365591
0.456500489
0.449657869
0.442815249
0.434995112
0.42913001
0.423264907
0.418377322
0.413489736
0.409579668
0.406647116
0.403714565
0.399804497
0.394916911
0.389051808
0.384164223
0.37829912
0.373411535
0.370478983
0.367546432
0.364613881
0.362658847
0.361681329
0.361681329
0.361681329
0.361681329
0.363636364
0.367546432
0.373411535
0.383186706
0.395894428
0.413489736
0.433040078
0.455522972
0.478983382
0.500488759
0.519061584
0.54056696
0.563049853
0.583577713
0.604105572
0.622678397
0.639296188
0.653958944
0.666666667
0.676441838
0.683284457
0.687194526
0.688172043
0.687194526
0.683284457
0.676441838
0.667644184
0.656891496
0.64516129
0.633431085
0.623655914
0.612903226
0.602150538
0.594330401
0.586510264
0.579667644
0.571847507
0.56402737
0.556207234
0.54740958
0.539589443
0.531769306
0.525904203
0.520039101
0.514173998
0.508308895
0.50342131
0.499511241
0.493646139
0.487781036
0.481915934
0.475073314
0.468230694
0.460410557
0.453567937
0.446725318
0.438905181
0.432062561
0.426197458
0.421309873
0.417399804
0.413489736
0.409579668
0.405669599
0.401759531
0.397849462
0.392961877
0.389051808
0.386119257
0.383186706
0.381231672
0.379276637
0.377321603
0.375366569
0.372434018
0.368523949
0.365591398
0.361681329
0.357771261
0.352883675
0.347018573
0.340175953
0.33431085
0.327468231
0.322580645
0.31769306
0.313782991
0.309872923
0.305962854
0.303030303
0.299120235
0.295210166
0.291300098
0.289345064
0.287390029
0.287390029
0.290322581
0.296187683
0.304985337
0.31769306
0.335288368
0.35483871
0.377321603
0.400782014
0.425219941
0.450635386
0.475073314
0.499511241
0.520039101
0.538611926
0.559139785
0.580645161
0.600195503
0.619745846
0.637341153
0.652981427
0.666666667
0.679374389
0.68914956
0.696969697
0.699902248
0.699902248
0.697947214
0.695014663
0.690127077
0.683284457
0.676441838
0.667644184
0.65884653
0.651026393
0.643206256
0.635386119
0.626588465
0.618768328
0.610948192
0.603128055
0.594330401
0.581622678
0.567937439
0.557184751
0.549364614
0.54056696
0.532746823
0.52688172
0.520039101
0.513196481
0.507331378
0.501466276
0.495601173
0.488758553
0.482893451
0.477028348
0.470185728
0.463343109
0.455522972
0.447702835
0.439882698
0.431085044
0.424242424
0.418377322
0.412512219
0.406647116
0.400782014
0.395894428
0.391006843
0.38514174
0.381231672
0.377321603
0.375366569
0.376344086
0.379276637
0.384164223
0.39198436
0.404692082
0.420332356
0.438905181
0.458455523
0.478983382
0.499511241
0.519061584
0.537634409
0.554252199
0.568914956
0.580645161
0.589442815
0.597262952
0.606060606
0.612903226
0.617790811
0.620723363
0.619745846
0.61485826
0.608993157
0.600195503
0.591397849
0.582600196
0.574780059
0.567937439
0.561094819
0.553274682
0.546432063
0.538611926
0.532746823
0.52688172
0.521994135
0.518084066
0.516129032
0.513196481
0.511241447
0.51026393
0.507331378
0.504398827
0.500488759
0.495601173
0.48973607
0.482893451
0.476050831
0.469208211
0.464320626
0.458455523
0.453567937
0.448680352
0.444770283
0.439882698
0.434995112
0.42913001
0.423264907
0.417399804
0.412512219
0.410557185
0.412512219
0.420332356
0.436950147
0.456500489
0.479960899
0.512218964
0.549364614
0.587487781
0.622678397
0.654936461
0.681329423
0.701857283
0.717497556
0.725317693
0.728250244
0.727272727
0.723362659
0.716520039
0.707722385
0.697947214
0.686217009
0.673509286
0.661779081
0.649071359
0.637341153
0.625610948
0.613880743
0.601173021
0.588465298
0.578690127
0.568914956
0.559139785
0.548387097
0.539589443
0.530791789
0.522971652
0.516129032
0.51026393
0.50342131
0.49657869
0.490713587
0.483870968
0.478005865
0.47311828
0.468230694
0.463343109
0.458455523
0.454545455
0.450635386
0.446725318
0.442815249
0.437927664
0.433040078
0.42913001
0.425219941
0.42228739
0.418377322
0.416422287
0.414467253
0.411534702
0.408602151
0.405669599
0.402737048
0.398826979
0.394916911
0.390029326
0.386119257
0.382209189
0.37829912
0.374389052
0.3714565
0.369501466
0.369501466
0.370478983
0.372434018
0.372434018
0.3714565
0.3714565
0.3714565
0.370478983
0.368523949
0.367546432
0.367546432
0.368523949
0.3714565
0.377321603
0.386119257
0.398826979
0.41544477
0.434017595
0.454545455
0.47311828
0.491691105
0.512218964
0.534701857
0.556207234
0.576735093
0.596285435
0.61485826
0.631476051
0.647116325
0.660801564
0.672531769
0.679374389
0.68230694
0.684261975
0.683284457
0.679374389
0.674486804
0.666666667
0.657869013
0.646138807
0.634408602
0.622678397
0.610948192
0.600195503
0.590420332
0.582600196
0.574780059
0.567937439
0.561094819
0.554252199
0.54740958
0.54056696
0.53372434
0.527859238
0.521016618
0.515151515
0.51026393
0.505376344
0.499511241
0.492668622
0.486803519
0.479960899
0.475073314
0.469208211
0.464320626
0.45943304
0.454545455
0.448680352
0.444770283
0.439882698
0.434995112
0.42913001
0.424242424
0.418377322
0.412512219
0.405669599
0.397849462
0.390029326
0.382209189
0.375366569
0.368523949
0.363636364
0.359726295
0.35483871
0.349951124
0.344086022
0.338220919
0.333333333
0.328445748
0.324535679
0.322580645
0.315738025
0.307917889
0.306940371
0.309872923
0.31769306
0.328445748
0.342130987
0.358748778
0.37829912
0.398826979
0.420332356
0.441837732
0.463343109
0.483870968
0.50342131
0.518084066
0.530791789
0.543499511
0.555229717
0.565004888
0.571847507
0.575757576
0.576735093
0.573802542
0.568914956
0.561094819
0.552297165
0.543499511
0.535679374
0.52688172
0.517106549
0.509286413
0.501466276
0.493646139
0.487781036
0.481915934
0.476050831
0.471163245
0.46627566
0.461388074
0.455522972
0.451612903
0.445747801
0.440860215
0.43597263
0.431085044
0.426197458
0.421309873
0.417399804
0.412512219
0.408602151
0.403714565
0.400782014
0.397849462
0.394916911
0.39198436
0.388074291
0.384164223
0.380254154
0.376344086
0.3714565
0.366568915
0.360703812
0.353861193
0.346041056
0.340175953
0.33431085
0.328445748
0.322580645
0.316715543
0.31085044
0.306940371
0.303030303
0.300097752
0.298142717
0.296187683
0.294232649
0.292277615
0.289345064
0.286412512
0.282502444
0.277614858
0.272727273
0.26686217
0.26001955
0.253176931
0.246334311
0.240469208
0.235581623
0.231671554
0.22971652
0.227761486
0.225806452
0.2228739
0.219941349
0.216031281
0.212121212
0.206256109
0.202346041
0.198435973
0.196480938
0.197458456
0.201368524
0.207233627
0.217986315
0.233626588
0.253176931
0.275659824
0.301075269
0.329423265
0.358748778
0.389051808
0.420332356
0.451612903
0.480938416
0.506353861
0.527859238
0.550342131
0.573802542
0.597262952
0.618768328
0.638318671
0.656891496
0.671554252
0.683284457
0.691104594
0.695014663
0.69599218
0.693059629
0.688172043
0.680351906
0.670576735
0.660801564
0.650048876
0.639296188
0.6285435
0.618768328
0.608993157
0.600195503
0.591397849
0.582600196
0.572825024
0.563049853
0.553274682
0.542521994
0.531769306
0.521016618
0.51026393
0.500488759
0.490713587
0.480938416
0.471163245
0.462365591
0.454545455
0.446725318
0.439882698
0.432062561
0.424242424
0.416422287
0.408602151
0.401759531
0.395894428
0.391006843
0.386119257
0.384164223
0.381231672
0.379276637
0.375366569
0.372434018
0.369501466
0.364613881
0.360703812
0.355816227
0.351906158
0.34799609
0.344086022
0.340175953
0.338220919
0.337243402
0.336265885
0.338220919
0.34115347
0.346041056
0.35483871
0.366568915
0.380254154
0.396871945
0.41544477
0.434995112
0.451612903
0.46627566
0.481915934
0.498533724
0.513196481
0.52688172
0.538611926
0.548387097
0.554252199
0.557184751
0.558162268
0.555229717
0.551319648
0.545454545
0.538611926
0.529814272
0.519061584
0.507331378
0.495601173
0.484848485
0.476050831
0.467253177
0.458455523
0.45259042
0.447702835
0.443792766
0.440860215
0.436950147
0.433040078
0.428152493
0.42228739
0.416422287
0.409579668
0.403714565
0.398826979
0.393939394
0.391006843
0.388074291
0.386119257
0.38514174
0.383186706
0.381231672
0.379276637
0.375366569
0.3714565
0.366568915
0.362658847
0.357771261
0.352883675
0.348973607
0.346041056
0.344086022
0.340175953
0.335288368
0.330400782
0.324535679
0.319648094
0.313782991
0.308895406
0.303030303
0.298142717
0.292277615
0.287390029
0.283479961
0.279569892
0.274682307
0.269794721
0.287390029
0.315738025
0.328445748
0.332355816
0.331378299
0.328445748
0.327468231
0.324535679
0.323558162
0.323558162
0.323558162
0.325513196
0.330400782
0.339198436
0.350928641
0.366568915
0.386119257
0.407624633
0.430107527
0.453567937
0.477028348
0.497556207
0.515151515
0.532746823
0.551319648
0.568914956
0.586510264
0.603128055
0.618768328
0.633431085
0.647116325
0.657869013
0.667644184
0.673509286
0.677419355
0.679374389
0.679374389
0.676441838
0.671554252
0.66568915
0.659824047
0.654936461
0.65200391
0.650048876
0.649071359
0.648093842
0.647116325
0.64516129
0.642228739
0.638318671
0.632453568
0.625610948
0.616813294
0.607038123
0.597262952
0.585532747
0.573802542
0.561094819
0.550342131
0.539589443
0.528836755
0.517106549
0.506353861
0.495601173
0.484848485
0.475073314
0.46627566
0.45943304
0.45259042
0.446725318
0.440860215
0.436950147
0.432062561
0.427174976
0.42228739
0.417399804
0.413489736
0.408602151
0.403714565
0.398826979
0.392961877
0.388074291
0.383186706
0.380254154
0.377321603
0.373411535
0.370478983
0.366568915
0.362658847
0.358748778
0.355816227
0.352883675
0.348973607
0.345063539
0.342130987
0.338220919
0.336265885
0.33431085
0.332355816
0.330400782
0.327468231
0.325513196
0.324535679
0.323558162
0.321603128
0.320625611
0.318670577
0.31769306
0.31769306
0.31769306
0.316715543
0.316715543
0.316715543
0.31769306
0.319648094
0.324535679
0.332355816
0.342130987
0.353861193
0.369501466
0.386119257
0.403714565
0.420332356
0.439882698
0.460410557
0.482893451
0.504398827
0.524926686
0.544477028
0.563049853
0.580645161
0.597262952
0.611925709
0.62170088
0.629521017
0.636363636
0.641251222
0.64516129
0.646138807
0.644183773
0.641251222
0.637341153
0.631476051
0.624633431
0.617790811
0.611925709
0.605083089
0.598240469
0.591397849
0.58455523
0.579667644
0.573802542
0.567937439
0.563049853
0.558162268
0.552297165
0.54740958
0.541544477
0.536656891
0.530791789
0.525904203
0.521016618
0.515151515
0.509286413
0.504398827
0.498533724
0.493646139
0.488758553
0.482893451
0.478005865
0.475073314
0.471163245
0.467253177
0.464320626
0.460410557
0.456500489
0.45259042
0.448680352
0.444770283
0.440860215
0.436950147
0.433040078
0.428152493
0.424242424
0.421309873
0.417399804
0.413489736
0.410557185
0.407624633
0.403714565
0.399804497
0.395894428
0.39198436
0.387096774
0.383186706
0.381231672
0.379276637
0.37829912
0.377321603
0.376344086
0.377321603
0.379276637
0.38514174
0.392961877
0.402737048
0.41544477
0.430107527
0.446725318
0.461388074
0.475073314
0.491691105
0.508308895
0.524926686
0.541544477
0.557184751
0.571847507
0.583577713
0.594330401
0.602150538
0.60801564
0.611925709
0.613880743
0.612903226
0.610948192
0.60801564
0.603128055
0.596285435
0.588465298
0.581622678
0.573802542
0.565982405
0.558162268
0.552297165
0.54740958
0.542521994
0.538611926
0.534701857
0.530791789
0.525904203
0.520039101
0.514173998
0.508308895
0.50342131
0.497556207
0.492668622
0.48973607
0.485826002
0.480938416
0.476050831
0.471163245
0.46627566
0.462365591
0.457478006
0.45259042
0.446725318
0.440860215
0.434995112
0.42913001
0.425219941
0.421309873
0.419354839
0.417399804
0.417399804
0.417399804
0.418377322
0.418377322
0.418377322
0.418377322
0.418377322
0.418377322
0.418377322
0.417399804
0.416422287
0.416422287
0.414467253
0.414467253
0.413489736
0.412512219
0.412512219
0.412512219
0.413489736
0.416422287
0.42228739
0.42913001
0.438905181
0.45259042
0.470185728
0.48973607
0.51026393
0.532746823
0.553274682
0.572825024
0.591397849
0.608993157
0.624633431
0.636363636
0.646138807
0.654936461
0.662756598
0.669599218
0.672531769
0.674486804
0.672531769
0.669599218
0.663734115
0.656891496
0.649071359
0.639296188
0.630498534
0.622678397
0.613880743
0.605083089
0.596285435
0.589442815
0.583577713
0.57771261
0.573802542
0.569892473
0.565982405
0.561094819
0.556207234
0.552297165
0.546432063
0.54056696
0.534701857
0.527859238
0.521016618
0.514173998
0.505376344
0.497556207
0.490713587
0.482893451
0.477028348
0.472140762
0.467253177
0.462365591
0.458455523
0.454545455
0.45259042
0.450635386
0.448680352
0.446725318
0.444770283
0.440860215
0.437927664
0.434017595
0.430107527
0.426197458
0.421309873
0.416422287
0.412512219
0.408602151
0.404692082
0.400782014
0.396871945
0.393939394
0.390029326
0.386119257
0.383186706
0.381231672
0.379276637
0.37829912
0.376344086
0.375366569
0.374389052
0.374389052
0.376344086
0.380254154
0.388074291
0.398826979
0.411534702
0.426197458
0.443792766
0.464320626
0.485826002
0.508308895
0.530791789
0.552297165
0.573802542
0.593352884
0.611925709
0.629521017
0.643206256
0.653958944
0.662756598
0.669599218
0.674486804
0.676441838
0.673509286
0.669599218
0.66568915
0.659824047
0.651026393
0.641251222
0.631476051
0.622678397
0.61485826
0.605083089
0.597262952
0.589442815
0.582600196
0.575757576
0.568914956
0.562072336
0.555229717
0.548387097
0.542521994
0.536656891
0.531769306
0.52688172
0.521994135
0.517106549
0.511241447
0.506353861
0.500488759
0.495601173
0.48973607
0.484848485
0.478005865
0.471163245
0.465298143
0.45943304
0.453567937
0.447702835
0.442815249
0.438905181
0.434995112
0.432062561
0.430107527
0.431085044
0.434995112
0.441837732
0.449657869
0.45943304
0.472140762
0.486803519
0.502443793
0.519061584
0.53372434
0.54740958
0.562072336
0.574780059
0.585532747
0.595307918
0.605083089
0.611925709
0.617790811
0.622678397
0.626588465
0.627565982
0.625610948
0.622678397
0.617790811
0.609970674
0.601173021
0.591397849
0.581622678
0.572825024
0.565004888
0.556207234
0.549364614
0.541544477
0.534701857
0.528836755
0.522971652
0.518084066
0.512218964
0.507331378
0.50342131
0.498533724
0.493646139
0.48973607
0.484848485
0.479960899
0.475073314
0.470185728
0.46627566
0.463343109
0.45943304
0.455522972
0.451612903
0.447702835
0.443792766
0.440860215
0.437927664
0.433040078
0.428152493
0.423264907
0.418377322
0.413489736
0.409579668
0.405669599
0.400782014
0.394916911
0.390029326
0.387096774
0.383186706
0.379276637
0.377321603
0.375366569
0.373411535
0.372434018
0.370478983
0.369501466
0.368523949
0.369501466
0.370478983
0.373411535
0.377321603
0.383186706
0.392961877
0.404692082
0.410557185
0.416422287
0.434017595
0.460410557
0.497556207
0.532746823
0.557184751
0.583577713
0.606060606
0.626588465
0.649071359
0.671554252
0.693059629
0.712609971
0.728250244
0.740957967
0.747800587
0.750733138
0.749755621
0.744868035
0.738025415
0.728250244
0.717497556
0.706744868
0.69599218
0.685239492
0.675464321
0.664711632
0.654936461
0.64516129
0.636363636
0.626588465
0.617790811
0.609970674
0.602150538
0.594330401
0.585532747
0.578690127
0.571847507
0.565982405
0.562072336
0.559139785
0.557184751
0.556207234
0.555229717
0.554252199
0.554252199
0.553274682
0.551319648
0.548387097
0.544477028
0.538611926
0.530791789
0.521994135
0.512218964
0.500488759
0.488758553
0.476050831
0.465298143
0.453567937
0.440860215
0.427174976
0.413489736
0.399804497
0.388074291
0.37829912
0.367546432
0.357771261
0.34799609
0.338220919
0.330400782
0.323558162
0.31769306
0.309872923
0.303030303
0.295210166
0.288367546
0.282502444
0.276637341
0.272727273
0.268817204
0.265884653
0.265884653
0.26686217
0.269794721
0.274682307
0.282502444
0.295210166
0.311827957
0.331378299
0.35483871
0.380254154
0.406647116
0.434017595
0.461388074
0.485826002
0.507331378
0.531769306
0.556207234
0.580645161
0.605083089
0.6285435
0.650048876
0.669599218
0.688172043
0.704789834
0.717497556
0.725317693
0.728250244
0.729227761
0.72629521
0.718475073
0.707722385
0.694037146
0.68230694
0.673509286
0.667644184
0.664711632
0.66568915
0.667644184
0.668621701
0.669599218
0.668621701
0.664711632
0.656891496
0.646138807
0.632453568
0.61485826
0.595307918
0.573802542
0.552297165
0.531769306
0.508308895
0.488758553
0.474095797
0.457478006
0.440860215
0.424242424
0.408602151
0.392961877
0.37829912
0.364613881
0.350928641
0.339198436
0.328445748
0.320625611
0.315738025
0.309872923
0.304985337
0.300097752
0.296187683
0.293255132
0.290322581
0.287390029
0.283479961
0.281524927
0.279569892
0.278592375
0.277614858
0.276637341
0.274682307
0.272727273
0.269794721
0.26686217
0.263929619
0.260997067
0.259042033
0.259042033
0.261974585
0.267839687
0.276637341
0.287390029
0.303030303
0.321603128
0.343108504
0.366568915
0.392961877
0.420332356
0.447702835
0.476050831
0.502443793
0.52688172
0.54740958
0.565004888
0.58455523
0.602150538
0.618768328
0.632453568
0.644183773
0.65200391
0.656891496
0.657869013
0.654936461
0.646138807
0.635386119
0.627565982
0.618768328
0.607038123
0.596285435
0.58455523
0.574780059
0.565004888
0.557184751
0.550342131
0.543499511
0.536656891
0.530791789
0.524926686
0.518084066
0.514173998
0.51026393
0.505376344
0.500488759
0.494623656
0.48973607
0.483870968
0.478983382
0.475073314
0.47311828
0.471163245
0.469208211
0.467253177
0.463343109
0.460410557
0.455522972
0.451612903
0.445747801
0.436950147
0.428152493
0.420332356
0.411534702
0.404692082
0.400782014
0.394916911
0.386119257
0.37829912
0.373411535
0.369501466
0.367546432
0.367546432
0.3714565
0.37829912
0.389051808
0.402737048
0.416422287
0.431085044
0.448680352
0.468230694
0.488758553
0.508308895
0.527859238
0.546432063
0.56402737
0.579667644
0.593352884
0.594330401
0.587487781
0.58455523
0.583577713
0.582600196
0.580645161
0.578690127
0.574780059
0.568914956
0.562072336
0.555229717
0.549364614
0.543499511
0.538611926
0.53372434
0.529814272
0.524926686
0.521016618
0.517106549
0.513196481
0.509286413
0.505376344
0.500488759
0.495601173
0.48973607
0.484848485
0.479960899
0.477028348
0.472140762
0.467253177
0.461388074
0.455522972
0.449657869
0.443792766
0.437927664
0.432062561
0.427174976
0.421309873
0.41544477
0.412512219
0.409579668
0.407624633
0.404692082
0.402737048
0.399804497
0.396871945
0.392961877
0.389051808
0.384164223
0.380254154
0.377321603
0.375366569
0.374389052
0.373411535
0.373411535
0.374389052
0.377321603
0.383186706
0.39198436
0.404692082
0.419354839
0.436950147
0.455522972
0.471163245
0.486803519
0.50342131
0.521016618
0.537634409
0.555229717
0.571847507
0.587487781
0.602150538
0.615835777
0.627565982
0.637341153
0.644183773
0.648093842
0.649071359
0.649071359
0.647116325
0.644183773
0.639296188
0.632453568
0.625610948
0.616813294
0.608993157
0.600195503
0.592375367
0.585532747
0.579667644
0.573802542
0.567937439
0.561094819
0.555229717
0.549364614
0.543499511
0.537634409
0.531769306
0.524926686
0.519061584
0.512218964
0.506353861
0.500488759
0.493646139
0.487781036
0.480938416
0.476050831
0.471163245
0.46627566
0.461388074
0.457478006
0.453567937
0.449657869
0.445747801
0.442815249
0.438905181
0.434017595
0.428152493
0.423264907
0.418377322
0.413489736
0.409579668
0.405669599
0.402737048
0.398826979
0.394916911
0.39198436
0.389051808
0.386119257
0.382209189
0.37829912
0.375366569
0.3714565
0.368523949
0.365591398
0.361681329
0.358748778
0.356793744
0.355816227
0.357771261
0.360703812
0.366568915
0.375366569
0.388074291
0.401759531
0.418377322
0.43597263
0.454545455
0.475073314
0.494623656
0.515151515
0.532746823
0.54740958
0.562072336
0.57771261
0.591397849
0.603128055
0.613880743
0.620723363
0.625610948
0.627565982
0.625610948
0.620723363
0.615835777
0.608993157
0.601173021
0.593352884
0.585532747
0.57771261
0.569892473
0.563049853
0.556207234
0.551319648
0.546432063
0.541544477
0.537634409
0.53372434
0.529814272
0.524926686
0.520039101
0.515151515
0.511241447
0.506353861
0.501466276
0.49657869
0.491691105
0.487781036
0.482893451
0.478983382
0.475073314
0.471163245
0.465298143
0.458455523
0.45259042
0.446725318
0.439882698
0.434017595
0.428152493
0.42228739
0.416422287
0.411534702
0.407624633
0.404692082
0.401759531
0.399804497
0.396871945
0.394916911
0.39198436
0.388074291
0.384164223
0.380254154
0.376344086
0.372434018
0.3714565
0.370478983
0.3714565
0.372434018
0.376344086
0.383186706
0.393939394
0.406647116
0.42228739
0.439882698
0.458455523
0.477028348
0.494623656
0.508308895
0.521016618
0.535679374
0.549364614
0.563049853
0.574780059
0.585532747
0.594330401
0.600195503
0.603128055
0.604105572
0.603128055
0.601173021
0.596285435
0.590420332
0.583577713
0.576735093
0.568914956
0.561094819
0.554252199
0.546432063
0.54056696
0.534701857
0.529814272
0.525904203
0.521016618
0.517106549
0.514173998
0.51026393
0.506353861
0.501466276
0.494623656
0.48973607
0.484848485
0.479960899
0.474095797
0.469208211
0.465298143
0.460410557
0.454545455
0.447702835
0.440860215
0.433040078
0.425219941
0.417399804
0.409579668
0.402737048
0.395894428
0.390029326
0.386119257
0.382209189
0.377321603
0.372434018
0.367546432
0.362658847
0.358748778
0.355816227
0.352883675
0.349951124
0.347018573
0.345063539
0.343108504
0.34115347
0.340175953
0.337243402
0.33431085
0.331378299
0.329423265
0.327468231
0.326490714
0.324535679
0.323558162
0.322580645
0.320625611
0.319648094
0.319648094
0.319648094
0.318670577
0.31769306
0.31769306
0.31769306
0.318670577
0.319648094
0.322580645
0.326490714
0.331378299
0.337243402
0.342130987
0.347018573
0.349951124
0.350928641
0.350928641
0.349951124
0.348973607
0.34799609
0.34799609
0.350928641
0.356793744
0.366568915
0.37829912
0.39198436
0.408602151
0.42913001
0.45259042
0.476050831
0.501466276
0.525904203
0.550342131
0.573802542
0.595307918
0.61485826
0.631476051
0.644183773
0.652981427
0.659824047
0.664711632
0.666666667
0.666666667
0.663734115
0.65884653
0.65200391
0.644183773
0.635386119
0.626588465
0.618768328
0.610948192
0.603128055
0.596285435
0.589442815
0.582600196
0.575757576
0.568914956
0.562072336
0.555229717
0.549364614
0.542521994
0.535679374
0.528836755
0.522971652
0.516129032
0.511241447
0.506353861
0.501466276
0.497556207
0.492668622
0.488758553
0.482893451
0.478005865
0.47311828
0.469208211
0.46627566
0.463343109
0.460410557
0.457478006
0.455522972
0.453567937
0.45259042
0.453567937
0.455522972
0.458455523
0.463343109
0.470185728
0.477028348
0.484848485
0.493646139
0.504398827
0.514173998
0.522971652
0.531769306
0.539589443
0.546432063
0.553274682
0.557184751
0.560117302
0.560117302
0.559139785
0.556207234
0.550342131
0.543499511
0.535679374
0.525904203
0.516129032
0.506353861
0.495601173
0.485826002
0.477028348
0.469208211
0.462365591
0.456500489
0.451612903
0.446725318
0.440860215
0.43597263
0.431085044
0.426197458
0.42228739
0.417399804
0.413489736
0.409579668
0.405669599
0.401759531
0.396871945
0.39198436
0.387096774
0.382209189
0.376344086
0.3714565
0.367546432
0.363636364
0.360703812
0.357771261
0.35483871
0.352883675
0.350928641
0.348973607
0.347018573
0.343108504
0.340175953
0.337243402
0.333333333
0.330400782
0.327468231
0.324535679
0.320625611
0.31769306
0.315738025
0.312805474
0.309872923
0.306940371
0.304985337
0.302052786
0.299120235
0.296187683
0.292277615
0.289345064
0.287390029
0.285434995
0.286412512
0.290322581
0.296187683
0.305962854
0.319648094
0.337243402
0.357771261
0.380254154
0.404692082
0.430107527
0.456500489
0.480938416
0.502443793
0.521016618
0.541544477
0.561094819
0.580645161
0.597262952
0.611925709
0.624633431
0.633431085
0.640273705
0.644183773
0.646138807
0.644183773
0.641251222
0.636363636
0.631476051
0.624633431
0.617790811
0.610948192
0.603128055
0.596285435
0.588465298
0.580645161
0.572825024
0.565004888
0.558162268
0.552297165
0.544477028
0.537634409
0.529814272
0.521994135
0.515151515
0.508308895
0.501466276
0.49657869
0.492668622
0.488758553
0.490713587
0.495601173
0.49657869
0.494623656
0.490713587
0.486803519
0.482893451
0.478005865
0.472140762
0.46627566
0.460410557
0.455522972
0.449657869
0.443792766
0.438905181
0.434017595
0.42913001
0.424242424
0.419354839
0.414467253
0.409579668
0.405669599
0.401759531
0.397849462
0.393939394
0.39198436
0.390029326
0.388074291
0.386119257
0.38514174
0.383186706
0.380254154
0.377321603
0.374389052
0.3714565
0.367546432
0.364613881
0.360703812
0.357771261
0.355816227
0.353861193
0.352883675
0.351906158
0.351906158
0.350928641
0.349951124
0.348973607
0.348973607
0.348973607
0.34799609
0.34799609
0.34799609
0.347018573
0.346041056
0.345063539
0.344086022
0.344086022
0.346041056
0.348973607
0.35483871
0.363636364
0.376344086
0.392961877
0.409579668
0.427174976
0.448680352
0.471163245
0.494623656
0.518084066
0.542521994
0.568914956
0.595307918
0.62170088
0.647116325
0.671554252
0.690127077
0.703812317
0.716520039
0.72629521
0.731182796
0.732160313
0.728250244
0.721407625
0.710654936
0.697947214
0.68230694
0.666666667
0.650048876
0.635386119
0.62170088
0.60801564
0.594330401
0.580645161
0.568914956
0.557184751
0.546432063
0.535679374
0.52688172
0.519061584
0.511241447
0.505376344
0.500488759
0.495601173
0.490713587
0.485826002
0.479960899
0.474095797
0.469208211
0.463343109
0.458455523
0.454545455
0.449657869
0.444770283
0.440860215
0.436950147
0.432062561
0.427174976
0.423264907
0.420332356
0.417399804
0.414467253
0.412512219
0.409579668
0.405669599
0.402737048
0.400782014
0.397849462
0.394916911
0.39198436
0.390029326
0.388074291
0.386119257
0.38514174
0.384164223
0.382209189
0.381231672
0.379276637
0.376344086
0.374389052
0.372434018
0.369501466
0.365591398
0.361681329
0.357771261
0.353861193
0.351906158
0.348973607
0.346041056
0.344086022
0.342130987
0.340175953
0.340175953
0.340175953
0.340175953
0.340175953
0.339198436
0.338220919
0.337243402
0.335288368
0.333333333
0.331378299
0.329423265
0.328445748
0.328445748
0.328445748
0.330400782
0.335288368
0.34115347
0.349951124
0.362658847
0.377321603
0.394916911
0.41544477
0.436950147
0.45943304
0.478983382
0.498533724
0.519061584
0.539589443
0.560117302
0.579667644
0.598240469
0.61485826
0.629521017
0.643206256
0.652981427
0.661779081
0.666666667
0.668621701
0.667644184
0.66568915
0.661779081
0.656891496
0.650048876
0.643206256
0.636363636
0.630498534
0.624633431
0.619745846
0.61485826
0.609970674
0.605083089
0.602150538
0.600195503
0.601173021
0.603128055
0.60801564
0.61485826
0.62170088
0.629521017
0.634408602
0.636363636
0.635386119
0.631476051
0.624633431
0.61485826
0.602150538
0.587487781
0.571847507
0.556207234
0.539589443
0.524926686
0.509286413
0.495601173
0.480938416
0.469208211
0.460410557
0.449657869
0.440860215
0.432062561
0.424242424
0.417399804
0.409579668
0.402737048
0.395894428
0.390029326
0.383186706
0.37829912
0.373411535
0.368523949
0.362658847
0.358748778
0.35483871
0.351906158
0.349951124
0.348973607
0.34799609
0.34799609
0.348973607
0.349951124
0.351906158
0.353861193
0.357771261
0.363636364
0.3714565
0.382209189
0.389051808
0.395894428
0.407624633
0.423264907
0.439882698
0.457478006
0.472140762
0.485826002
0.499511241
0.514173998
0.52688172
0.538611926
0.550342131
0.560117302
0.568914956
0.575757576
0.580645161
0.582600196
0.583577713
0.582600196
0.580645161
0.576735093
0.573802542
0.568914956
0.565004888
0.562072336
0.559139785
0.555229717
0.552297165
0.549364614
0.545454545
0.541544477
0.536656891
0.531769306
0.52688172
0.520039101
0.513196481
0.504398827
0.495601173
0.486803519
0.478005865
0.469208211
0.461388074
0.454545455
0.447702835
0.442815249
0.436950147
0.432062561
0.428152493
0.424242424
0.421309873
0.417399804
0.413489736
0.408602151
0.403714565
0.399804497
0.395894428
0.392961877
0.390029326
0.386119257
0.383186706
0.379276637
0.375366569
0.3714565
0.368523949
0.365591398
0.362658847
0.359726295
0.356793744
0.35483871
0.352883675
0.349951124
0.347018573
0.344086022
0.34115347
0.338220919
0.335288368
0.333333333
0.332355816
0.331378299
0.331378299
0.332355816
0.333333333
0.335288368
0.336265885
0.337243402
0.339198436
0.342130987
0.344086022
0.346041056
0.34799609
0.349951124
0.352883675
0.357771261
0.363636364
0.372434018
0.38514174
0.400782014
0.420332356
0.441837732
0.465298143
0.487781036
0.509286413
0.528836755
0.545454545
0.560117302
0.569892473
0.57771261
0.58455523
0.590420332
0.595307918
0.599217986
0.603128055
0.607038123
0.608993157
0.610948192
0.612903226
0.612903226
0.611925709
0.609970674
0.607038123
0.603128055
0.599217986
0.594330401
0.588465298
0.583577713
0.579667644
0.574780059
0.57086999
0.565982405
0.561094819
0.556207234
0.551319648
0.546432063
0.54056696
0.53372434
0.527859238
0.521016618
0.515151515
0.508308895
0.502443793
0.497556207
0.492668622
0.487781036
0.484848485
0.480938416
0.478005865
0.474095797
0.471163245
0.468230694
0.464320626
0.461388074
0.457478006
0.453567937
0.449657869
0.444770283
0.440860215
0.437927664
0.433040078
0.42913001
0.425219941
0.42228739
0.419354839
0.416422287
0.413489736
0.410557185
0.407624633
0.403714565
0.401759531
0.399804497
0.397849462
0.393939394
0.391006843
0.387096774
0.384164223
0.380254154
0.377321603
0.374389052
0.3714565
0.368523949
0.365591398
0.363636364
0.361681329
0.359726295
0.357771261
0.355816227
0.35483871
0.35483871
0.357771261
0.362658847
0.369501466
0.379276637
0.391006843
0.403714565
0.416422287
0.431085044
0.448680352
0.46627566
0.483870968
0.502443793
0.519061584
0.536656891
0.552297165
0.567937439
0.581622678
0.593352884
0.602150538
0.608993157
0.613880743
0.618768328
0.62170088
0.622678397
0.62170088
0.618768328
0.61485826
0.609970674
0.604105572
0.598240469
0.592375367
0.588465298
0.583577713
0.578690127
0.574780059
0.57086999
0.566959922
0.563049853
0.559139785
0.555229717
0.550342131
0.545454545
0.54056696
0.534701857
0.529814272
0.523949169
0.518084066
0.511241447
0.504398827
0.498533724
0.490713587
0.483870968
0.476050831
0.468230694
0.461388074
0.455522972
0.450635386
0.445747801
0.441837732
0.437927664
0.434995112
0.433040078
0.432062561
0.431085044
0.431085044
0.431085044
0.433040078
0.437927664
0.446725318
0.45943304
0.475073314
0.491691105
0.511241447
0.530791789
0.551319648
0.569892473
0.587487781
0.604105572
0.620723363
0.634408602
0.64516129
0.652981427
0.660801564
0.667644184
0.672531769
0.674486804
0.674486804
0.671554252
0.666666667
0.659824047
0.65200391
0.643206256
0.633431085
0.623655914
0.61485826
0.607038123
0.600195503
0.592375367
0.585532747
0.578690127
0.572825024
0.565982405
0.559139785
0.551319648
0.543499511
0.535679374
0.528836755
0.522971652
0.516129032
0.509286413
0.502443793
0.495601173
0.48973607
0.483870968
0.478005865
0.471163245
0.464320626
0.455522972
0.447702835
0.439882698
0.432062561
0.424242424
0.416422287
0.409579668
0.401759531
0.395894428
0.390029326
0.384164223
0.37829912
0.373411535
0.368523949
0.364613881
0.360703812
0.355816227
0.351906158
0.346041056
0.340175953
0.33431085
0.328445748
0.322580645
0.319648094
0.31769306
0.318670577
0.321603128
0.327468231
0.336265885
0.349951124
0.367546432
0.389051808
0.412512219
0.436950147
0.462365591
0.487781036
0.513196481
0.537634409
0.557184751
0.575757576
0.595307918
0.613880743
0.632453568
0.649071359
0.664711632
0.676441838
0.684261975
0.690127077
0.693059629
0.693059629
0.691104594
0.687194526
0.681329423
0.675464321
0.668621701
0.660801564
0.653958944
0.647116325
0.640273705
0.634408602
0.627565982
0.62170088
0.61485826
0.608993157
0.604105572
0.600195503
0.595307918
0.589442815
0.583577713
0.57771261
0.57086999
0.565004888
0.559139785
0.552297165
0.545454545
0.537634409
0.530791789
0.524926686
0.517106549
0.509286413
0.502443793
0.494623656
0.488758553
0.484848485
0.483870968
0.482893451
0.482893451
0.483870968
0.484848485
0.484848485
0.484848485
0.483870968
0.481915934
0.477028348
0.470185728
0.461388074
0.45259042
0.442815249
0.434017595
0.426197458
0.418377322
0.412512219
0.407624633
0.402737048
0.398826979
0.395894428
0.39198436
0.388074291
0.383186706
0.380254154
0.376344086
0.372434018
0.369501466
0.366568915
0.363636364
0.360703812
0.356793744
0.353861193
0.350928641
0.347018573
0.344086022
0.34115347
0.338220919
0.33431085
0.331378299
0.328445748
0.326490714
0.322580645
0.319648094
0.316715543
0.313782991
0.309872923
0.305962854
0.301075269
0.2971652
0.293255132
0.290322581
0.287390029
0.286412512
0.288367546
0.292277615
0.298142717
0.308895406
0.323558162
0.342130987
0.363636364
0.388074291
0.413489736
0.440860215
0.467253177
0.490713587
0.511241447
0.532746823
0.555229717
0.576735093
0.597262952
0.615835777
0.632453568
0.647116325
0.657869013
0.664711632
0.667644184
0.667644184
0.664711632
0.65884653
0.65200391
0.644183773
0.636363636
0.627565982
0.620723363
0.61485826
0.609970674
0.607038123
0.604105572
0.601173021
0.598240469
0.594330401
0.590420332
0.585532747
0.579667644
0.573802542
0.567937439
0.562072336
0.556207234
0.550342131
0.543499511
0.535679374
0.527859238
0.521016618
0.514173998
0.505376344
0.49657869
0.487781036
0.478005865
0.467253177
0.457478006
0.446725318
0.436950147
0.428152493
0.419354839
0.412512219
0.407624633
0.402737048
0.398826979
0.396871945
0.396871945
0.398826979
0.406647116
0.418377322
0.431085044
0.445747801
0.463343109
0.482893451
0.500488759
0.518084066
0.538611926
0.560117302
0.582600196
0.604105572
0.625610948
0.64516129
0.663734115
0.681329423
0.696969697
0.710654936
0.720430108
0.72629521
0.732160313
0.735092864
0.736070381
0.734115347
0.729227761
0.722385142
0.713587488
0.704789834
0.69599218
0.687194526
0.678396872
0.670576735
0.662756598
0.654936461
0.649071359
0.643206256
0.639296188
0.637341153
0.636363636
0.636363636
0.636363636
0.635386119
0.633431085
0.629521017
0.624633431
0.617790811
0.608993157
0.598240469
0.58455523
0.57086999
0.555229717
0.54056696
0.524926686
0.509286413
0.493646139
0.478005865
0.464320626
0.45259042
0.438905181
0.426197458
0.413489736
0.401759531
0.391006843
0.381231672
0.372434018
0.365591398
0.359726295
0.355816227
0.352883675
0.351906158
0.349951124
0.348973607
0.347018573
0.345063539
0.343108504
0.34115347
0.338220919
0.335288368
0.332355816
0.330400782
0.327468231
0.325513196
0.324535679
0.322580645
0.320625611
0.318670577
0.31769306
0.31769306
0.321603128
0.327468231
0.337243402
0.350928641
0.369501466
0.388074291
0.408602151
0.433040078
0.45943304
0.486803519
0.515151515
0.544477028
0.571847507
0.597262952
0.622678397
0.64516129
0.666666667
0.686217009
0.700879765
0.711632454
0.722385142
0.732160313
0.73998045
0.745845552
0.749755621
0.750733138
0.748778104
0.744868035
0.739002933
0.730205279
0.720430108
0.709677419
0.698924731
0.687194526
0.675464321
0.663734115
0.65200391
0.640273705
0.6285435
0.618768328
0.608993157
0.599217986
0.590420332
0.581622678
0.573802542
0.565982405
0.558162268
0.549364614
0.539589443
0.530791789
0.521016618
0.512218964
0.502443793
0.493646139
0.484848485
0.476050831
0.468230694
0.460410557
0.451612903
0.443792766
0.43597263
0.428152493
0.420332356
0.414467253
0.408602151
0.402737048
0.397849462
0.392961877
0.390029326
0.386119257
0.382209189
0.37829912
0.375366569
0.374389052
0.375366569
0.37829912
0.38514174
0.393939394
0.405669599
0.420332356
0.433040078
0.446725318
0.463343109
0.480938416
0.499511241
0.517106549
0.53372434
0.550342131
0.565004888
0.578690127
0.591397849
0.601173021
0.60801564
0.610948192
0.613880743
0.613880743
0.610948192
0.606060606
0.597262952
0.588465298
0.57771261
