123
170
171
172
173
174
175
176
177
201
202
203
204
249
250
251
252
253
254
255
279
280
281
282
283
284
285
286
305
306
307
326
327
328
354
355
356
357
358
379
380
381
382
383
384
385
450
451
452
453
454
455
456
522
523
524
525
526
527
545
588
589
590
591
592
593
594
652
653
654
655
656
657
658
659
660
661
719
720
721
722
723
724
725
726
727
728
729
787
788
789
790
791
792
793
794
795
796
797
798
856
857
858
859
860
861
862
863
864
865
866
923
924
925
926
927
928
929
930
931
932
933
934
935
993
994
995
996
997
998
999
1000
1001
1016
1017
1018
1019
1020
1021
1049
1055
1056
1057
1058
1059
1060
1061
1062
1063
1064
1086
1087
1088
1120
1121
1122
1123
1124
1125
1126
1127
1128
1183
1184
1185
1186
1187
1188
1189
1190
1191
1192
1193
1227
1252
1253
1254
1255
1256
1257
1258
1259
1260
1261
1294
1322
1323
1324
1325
1326
1327
1340
1341
1342
1343
1344
1345
1346
1364
1365
1366
1367
1368
1369
1370
1371
1372
1373
1374
1375
1393
1394
1395
1396
1397
1398
1399
1400
1401
1402
1417
1418
1419
1420
1421
1422
1438
1439
1440
1441
1442
1443
1444
1445
1446
1447
1448
1449
1450
1451
1452
1453
1484
1485
1490
1491
1492
1493
1494
1495
1496
1497
1498
1499
1525
1526
1574
1575
1576
1577
1578
1579
1597
1598
1599
1600
1601
1602
1603
1604
1605
1606
1607
1608
1609
1610
1654
1655
1656
1657
1658
1675
1676
1677
1678
1679
1680
1681
1682
1683
1684
1685
1686
1687
1688
1689
1690
1691
1732
1733
1734
1735
1736
1737
1738
1755
1756
1757
1758
1759
1760
1761
1762
1763
1764
1765
1766
1767
1768
1769
1770
1786
1787
1788
1791
1792
1793
1798
1799
1809
1810
1811
1812
1813
1814
1815
1830
1831
1832
1833
1834
1835
1836
1837
1838
1839
1840
1841
1842
1843
1844
1845
1861
1862
1863
1864
1865
1866
1867
1868
1869
1870
1871
1872
1873
1874
1875
1883
1884
1885
1886
1887
1888
1889
1903
1904
1905
1906
1907
1908
1909
1910
1911
1912
1913
1914
1915
1916
1917
1918
1934
1935
1936
1937
1938
1939
1940
1941
1942
1943
1944
1945
1946
1947
1948
1949
1957
1958
1959
1960
1961
1962
1963
1976
1977
1978
1979
1980
1981
1982
1983
1984
1985
1986
1987
1988
1989
1990
1991
2007
2008
2009
2010
2011
2012
2013
2014
2015
2016
2017
2018
2019
2020
2021
2022
2023
2030
2031
2032
2033
2034
2035
2047
2048
2049
2050
2051
2052
2053
2054
2055
2056
2057
2058
2059
2060
2061
2062
2080
2081
2082
2083
2084
2085
2086
2087
2088
2089
2090
2091
2092
2093
2100
2101
2102
2103
2104
2105
2106
2107
2108
2121
2122
2123
2124
2125
2126
2127
2128
2129
2130
2131
2132
2133
2134
2135
2136
2137
2150
2151
2152
2153
2154
2155
2156
2157
2158
2159
2160
2161
2162
2163
2164
2175
2176
2177
2178
2179
2180
2181
2198
2199
2200
2201
2202
2203
2204
2205
2206
2207
2208
2209
2210
2211
2212
2213
2227
2228
2229
2230
2235
2236
2237
2238
2239
2240
2241
2242
2243
2244
2254
2255
2256
2257
2258
2259
2274
2275
2276
2277
2278
2279
2280
2281
2282
2283
2284
2285
2286
2287
2288
2289
2290
2303
2304
2305
2306
2307
2308
2312
2313
2314
2330
2331
2332
2333
2334
2335
2336
2349
2350
2351
2352
2353
2354
2355
2356
2357
2358
2359
2360
2361
2362
2363
2364
2365
2366
2380
2381
2382
2383
2384
2385
2386
2387
2388
2389
2390
2391
2392
2393
2394
2395
2406
2407
2408
2409
2410
2411
2426
2427
2428
2429
2430
2431
2432
2433
2434
2435
2436
2437
2438
2439
2440
2441
2442
2443
2456
2457
2458
2459
2460
2461
2463
2464
2465
2466
2467
2468
2469
2470
2471
2472
2473
2482
2483
2484
2485
2486
2487
2502
2503
2504
2505
2506
2507
2508
2509
2510
2511
2512
2513
2514
2515
2516
2517
2532
2533
2534
2535
2536
2537
2538
2539
2540
2541
2542
2543
2544
2545
2546
2547
2548
2549
2550
2557
2558
2559
2560
2573
2574
2575
2576
2577
2578
2579
2580
2581
2582
2583
2584
2603
2604
2605
2606
2607
2608
2609
2610
2611
2612
2613
2614
2615
2616
2617
2618
2619
2620
2621
2641
2642
2643
2644
2645
2646
2647
2648
2649
2650
2670
2671
2672
2673
2674
2675
2676
2677
2678
2679
2680
2681
2682
2683
2684
2685
2686
2687
2688
2707
2708
2709
2710
2711
2712
2713
2714
2715
2742
2743
2744
2745
2746
2747
2748
2749
2750
2751
2752
2753
2754
2771
2772
2773
2774
2775
2776
2777
2778
2779
2780
2781
2808
2809
2810
2811
2812
2813
2814
2815
2816
2817
2821
2822
2823
2824
2825
2826
2827
2828
2840
2841
2842
2843
2844
2845
2846
2847
2848
2849
2850
2870
2871
2872
2873
2874
2875
2876
2877
2878
2879
2880
2881
2882
2884
2894
2895
2896
2897
2898
2899
2916
2917
2918
2919
2920
2921
2922
2923
2924
2925
2926
2927
2928
2943
2944
2945
2946
2947
2948
2949
2950
2951
2954
2955
2956
2957
2958
2959
2972
2973
2985
2986
2987
2988
2989
2990
2991
2992
2993
2994
2995
2996
2997
2998
2999
3000
3001
3002
3003
3066
3067
3068
3069
3070
3071
3072
3073
3074
3075
3076
3077
3078
3079
3080
3108
3109
3144
3145
3146
3147
3148
3149
3150
3151
3152
3153
3154
3155
3156
3157
3158
3159
3173
3174
3175
3176
3183
3184
3185
3186
3187
3188
3189
3190
3200
3201
3202
3203
3204
3205
3220
3221
3222
3223
3224
3225
3226
3227
3228
3229
3230
3231
3232
3233
3234
3248
3249
3250
3251
3252
3253
3254
3257
3258
3259
3260
3261
3262
3263
3264
3265
3275
3276
3277
3278
3279
3280
3281
3294
3295
3296
3297
3298
3299
3300
3301
3302
3303
3304
3305
3306
3307
3308
3309
3310
3324
3325
3326
3327
3328
3329
3330
3331
3332
3333
3334
3335
3336
3337
3338
3339
3371
3372
3373
3374
3375
3376
3377
3378
3379
3380
3381
3382
3383
3384
3385
3386
3387
3388
3389
3402
3403
3404
3412
3413
3414
3415
3416
3417
3450
3451
3452
3453
3454
3455
3456
3457
3458
3459
3460
3461
3462
3463
3464
3465
3466
3479
3480
3481
3482
3490
3491
3492
3493
3494
3495
3496
3497
3507
3508
3509
3510
3511
3512
3513
3526
3527
3528
3529
3530
3531
3532
3533
3534
3535
3536
3537
3538
3539
3540
3541
3542
3555
3556
3557
3558
3559
3560
3561
3564
3565
3566
3567
3568
3569
3570
3571
3572
3584
3585
3586
3587
3588
3602
3603
3604
3605
3606
3607
3608
3609
3610
3611
3612
3613
3614
3615
3616
3617
3618
3619
3632
3633
3634
3635
3636
3642
3643
3644
3645
3646
3647
3648
3649
3661
3662
3663
3664
3665
3680
3681
3682
3683
3684
3685
3686
3687
3688
3689
3690
3691
3692
3693
3694
3695
3709
3710
3711
3712
3713
3718
3719
3720
3721
3722
3723
3724
3725
3726
3727
3737
3738
3739
3740
3741
3742
3756
3757
3758
3759
3760
3761
3762
3763
3764
3765
3766
3767
3768
3769
3770
3771
3784
3785
3786
3787
3788
3789
3790
3791
3793
3794
3795
3796
3797
3798
3799
3800
3801
3802
3812
3813
3814
3815
3816
3817
3829
3830
3831
3832
3833
3834
3835
3836
3837
3838
3839
3840
3841
3842
3843
3844
3845
3846
3847
3848
3849
3861
3862
3863
3864
3865
3866
3871
3872
3873
3874
3875
3876
3910
3911
3912
3913
3914
3915
3916
3917
3918
3919
3920
3921
3922
3923
3924
3925
3926
3927
3928
3929
3953
3954
3955
3956
3957
3991
3992
3993
3994
3995
3996
3997
3998
3999
4000
4001
4002
4003
4004
4005
4006
4007
4020
4021
4022
4023
4032
4033
4034
4035
4036
4037
4049
4050
4051
4052
4053
4054
4066
4067
4068
4069
4070
4071
4072
4073
4074
4075
4076
4077
4078
4079
4080
4081
4082
4083
4084
4097
4098
4099
4100
4101
4102
4109
4110
4111
4112
4113
4144
4145
4146
4147
4148
4149
4150
4151
4152
4153
4154
4155
4156
4157
4158
4159
4160
4161
4162
4163
4176
4177
4178
4188
4189
4190
4191
4192
4226
4227
4228
4229
4230
4231
4232
4233
4234
4235
4236
4237
4238
4239
4240
4241
4255
4256
4257
4266
4267
4268
4269
4270
4271
4282
4283
4284
4285
4286
4287
4288
4301
4302
4303
4304
4305
4306
4307
4308
4309
4310
4311
4312
4313
4314
4315
4316
4317
4330
4331
4332
4333
4334
4335
4336
4342
4343
4344
4345
4346
4347
4380
4381
4382
4383
4384
4385
4386
4387
4388
4389
4390
4391
4392
4393
4394
4407
4408
4409
4410
4411
4412
4420
4421
4422
4423
4424
4456
4457
4458
4459
4460
4461
4462
4463
4464
4465
4466
4467
4468
4469
4470
4484
4485
4486
4487
4488
4489
4490
4493
4494
4495
4496
4497
4498
4499
4529
4530
4531
4532
4533
4534
4535
4536
4537
4538
4540
4558
4559
4561
4564
4565
4566
4567
4568
4569
4570
4571
4572
4573
4574
4575
4579
4580
4581
4582
4583
4584
4585
4586
4597
4598
4599
4600
4601
4602
4603
4604
4605
4606
4607
4608
4609
4610
4611
4627
4628
4629
4630
4631
4632
4633
4634
4635
4636
4637
4638
4639
4640
4641
4642
4643
4644
4652
4653
4654
4655
4656
4657
4658
4672
4673
4674
4675
4676
4677
4678
4679
4680
4681
4682
4683
4684
4685
4686
4687
4688
4701
4702
4703
4704
4705
4706
4714
4715
4716
4717
4718
4719
4752
4753
4754
4755
4756
4757
4758
4759
4760
4761
4762
4763
4764
4765
4779
4780
4781
4782
4792
4793
4794
4795
4796
4807
4808
4809
4810
4811
4812
4825
4826
4827
4828
4829
4830
4831
4832
4833
4834
4835
4836
4837
4838
4839
4840
4854
4855
4856
4857
4858
4859
4860
4867
4868
4869
4870
4871
4902
4903
4904
4905
4906
4907
4908
4909
4910
4911
4912
4913
4914
4915
4916
4930
4931
4932
4933
4934
4935
4944
4945
4946
4980
4981
4982
4983
4984
4985
4986
4987
4988
4989
4990
4991
4992
4993
4994
4995
5009
5010
5011
5012
5023
5024
5059
5060
5061
5062
5063
5064
5065
5066
5067
5068
5069
5070
5071
5072
5073
5074
5087
5088
5089
5090
5091
5100
5101
5102
5103
5136
5137
5138
5139
5140
5141
5142
5143
5144
5145
5146
5147
5148
5149
5150
5151
5152
5165
5166
5167
5168
5169
5178
5179
5180
5181
5215
5216
5217
5218
5219
5220
5221
5222
5223
5224
5225
5226
5227
5228
5229
5230
5243
5244
5245
5246
5255
5256
5257
5258
5259
5260
5293
5294
5295
5296
5297
5298
5299
5300
5301
5302
5303
5304
5305
5306
5320
5321
5322
5323
5324
5332
5333
5334
5335
5336
5337
5338
5348
5349
5350
5351
5352
5353
5354
5367
5368
5369
5370
5371
5372
5373
5374
5375
5376
5377
5378
5379
5380
5381
5382
5395
5396
5397
5398
5399
5400
5401
5407
5408
5409
5410
5411
5412
5413
5425
5428
5429
5444
5445
5446
5447
5448
5449
5450
5451
5452
5453
5454
5455
5456
5457
5458
5459
5472
5473
5474
5475
5476
5484
5485
5486
5487
5488
5489
5490
5504
5505
5506
5521
5522
5523
5524
5525
5526
5527
5528
5529
5530
5531
5532
5533
5534
5535
5549
5550
5551
5552
5553
5554
5560
5561
5562
5563
5564
5565
5566
5577
5578
5579
5580
5581
5582
5595
5596
5597
5598
5599
5600
5601
5602
5603
5604
5605
5606
5607
5608
5609
5610
5611
5612
5625
5626
5627
5628
5629
5630
5638
5639
5640
5641
5642
5675
5676
5677
5678
5679
5680
5681
5682
5683
5684
5685
5686
5687
5688
5689
5690
5691
5692
5717
5718
5719
5720
5721
5757
5758
5759
5760
5761
5762
5763
5764
5765
5766
5767
5768
5769
5770
5771
5785
5786
5787
5796
5797
5798
5799
5800
5801
5834
5835
5836
5837
5838
5839
5840
5841
5842
5843
5844
5845
5846
5847
5848
5849
5850
5862
5863
5864
5865
5866
5875
5876
5877
5878
5879
5892
5893
5894
5895
5914
5915
5916
5917
5918
5919
5920
5921
5922
5923
5924
5925
5926
5941
5942
5943
5944
5948
5949
5950
5951
5953
5954
5955
5956
5957
5958
5972
5973
5984
5985
5986
5987
5988
5989
5990
5991
5992
5993
5994
5995
5996
5997
5998
5999
6000
6001
6002
6003
6004
6005
6006
6053
6054
6055
6056
6068
6069
6070
6071
6072
6073
6074
6075
6076
6077
6078
6079
6080
6081
6082
6083
6084
6099
6100
6101
6110
6111
6112
6113
6148
6149
6150
6151
6152
6153
6154
6155
6156
6157
6158
6159
6160
6161
6162
6163
6164
6165
6192
6193
6194
6195
6231
6232
6233
6234
6235
6236
6237
6238
6239
6240
6241
6242
6243
6244
6270
6271
6272
6273
6274
6275
6276
6286
6287
6288
6289
6290
6291
6292
6305
6306
6307
6308
6309
6310
6311
6312
6313
6314
6315
6316
6317
6318
6319
6320
6321
6334
6335
6336
6337
6338
6339
6340
6346
6347
6348
6349
6350
6351
6352
6383
6384
6385
6386
6387
6388
6389
6390
6391
6392
6393
6394
6395
6396
6397
6398
6399
6412
6413
6414
6415
6424
6425
6426
6427
6428
6429
6461
6462
6463
6464
6465
6466
6467
6468
6469
6470
6471
6472
6473
6474
6475
6476
6477
6478
6490
6491
6492
6493
6494
6503
6504
6505
6506
6507
6508
6540
6541
6542
6543
6544
6545
6546
6547
6548
6549
6550
6551
6552
6553
6554
6555
6556
6557
6569
6570
6571
6572
6573
6582
6583
6584
6585
6586
6618
6619
6620
6621
6622
6623
6624
6625
6626
6627
6628
6629
6630
6631
6632
6633
6634
6635
6636
6649
6650
6651
6662
6663
6664
6665
6666
6700
6701
6702
6703
6704
6705
6706
6707
6708
6709
6710
6711
6712
6713
6714
6728
6729
6730
6740
6741
6742
6743
6744
6745
6746
6754
6755
6756
6757
6758
6759
6775
6776
6777
6778
6779
6780
6781
6782
6783
6784
6785
6786
6787
6788
6803
6804
6805
6806
6807
6808
6809
6815
6816
6817
6818
6819
6820
6821
6822
6823
6824
6827
6828
6829
6830
6831
6832
6833
6846
6847
6848
6849
6850
6851
6852
6853
6854
6855
6856
6857
6858
6876
6877
6878
6879
6880
6881
6882
6883
6884
6885
6886
6887
6888
6889
6890
6891
6892
6893
6894
6895
6898
6899
6900
6901
6902
6903
6916
6917
6918
6919
6920
6921
6922
6923
6924
6925
6926
6945
6946
6947
6948
6949
6950
6951
6952
6953
6954
6955
6956
6957
6958
6959
6960
6961
6962
6963
6964
6967
6968
6969
6970
6971
6972
6984
6985
6986
6987
6988
6989
6990
6991
6992
6993
7014
7015
7016
7017
7018
7019
7020
7021
7022
7023
7024
7025
7026
7027
7028
7029
7030
7031
7032
7033
7034
7035
7036
7037
7038
7039
7040
7051
7052
7053
7054
7055
7056
7057
7058
7059
7060
7086
7087
7088
7089
7090
7091
7092
7093
7094
7095
7096
7097
7098
7099
7100
7101
7102
7103
7104
7105
7106
7118
7119
7120
7121
7122
7123
7124
7125
7126
7127
7152
7153
7154
7155
7156
7157
7158
7159
7160
7166
7167
7168
7169
7170
7171
7172
7173
7174
7175
7188
7189
7190
7191
7192
7193
7194
7195
7196
7197
7198
7199
7200
7201
7202
7217
7218
7219
7220
7221
7230
7231
7232
7233
7244
7245
7246
7247
7248
7249
7263
7264
7265
7266
7267
7268
7269
7270
7271
7272
7273
7274
7275
7276
7277
7291
7292
7293
7294
7295
7296
7297
7303
7304
7305
7306
7307
7308
7338
7339
7340
7341
7342
7343
7344
7345
7346
7347
7348
7349
7350
7351
7352
7353
7367
7368
7369
7370
7371
7372
7380
7381
7382
7383
7384
7419
7420
7421
7422
7423
7424
7425
7426
7427
7428
7429
7430
7431
7432
7460
7462
7463
7476
7492
7493
7494
7495
7497
7498
7499
7506
7507
7508
7509
7510
7511
7582
7583
7584
7585
7586
7587
7588
7589
7590
7591
7592
7593
7594
7595
7596
7597
7598
7599
7625
7626
7627
7628
7662
7663
7664
7665
7666
7667
7668
7669
7670
7671
7672
7673
7674
7675
7676
7677
7678
7679
7680
7705
7706
7707
7708
7709
7744
7745
7746
7747
7748
7749
7750
7751
7752
7753
7754
7755
7756
7757
7758
7759
7760
7761
7786
7787
7788
7789
7790
7825
7826
7827
7828
7829
7830
7831
7832
7833
7834
7835
7836
7837
7838
7839
7852
7853
7854
7855
7864
7865
7866
7867
7868
7869
7900
7901
7902
7903
7904
7905
7906
7907
7908
7909
7910
7911
7912
7913
7914
7915
7916
7917
7918
7931
7932
7933
7934
7942
7943
7944
7945
7946
7947
7981
7982
7983
7984
7985
7986
7987
7988
7989
7990
7991
7992
7993
7994
7995
7996
8004
8025
8026
8027
8028
8029
8052
8053
8066
8067
8068
8069
8070
8071
8072
8073
8074
8075
8076
8077
8078
8079
8080
8081
8082
8083
8084
8085
8108
8109
8110
8111
8112
8113
8147
8148
8149
8150
8151
8152
8153
8154
8155
8156
8157
8158
8159
8160
8161
8175
8176
8177
8178
8185
8186
8187
8188
8189
8190
8191
8192
8193
8201
8202
8203
8204
8205
8206
8207
8208
8221
8222
8223
8224
8225
8226
8227
8228
8229
8230
8231
8232
8233
8234
8235
8250
8251
8252
8253
8254
8255
8256
8257
8258
8259
8260
8261
8262
8263
8264
8265
8266
8267
8268
8269
8270
8274
8275
8276
8277
8278
8279
8280
8293
8294
8295
8296
8297
8298
8299
8300
8301
8302
8303
8304
8305
8306
8307
8323
8324
8325
8326
8327
8328
8329
8330
8331
8332
8333
8334
8335
8336
8337
8338
8339
8340
8341
8342
8346
8347
8348
8349
8350
8351
8352
8365
8366
8367
8368
8369
8370
8371
8372
8373
8374
8375
8376
8377
8378
8394
8395
8396
8397
8398
8399
8400
8401
8402
8403
8404
8405
8406
8407
8408
8409
8410
8411
8412
8413
8418
8419
8420
8421
8422
8423
8424
8436
8437
8438
8439
8440
8441
8442
8443
8444
8445
8446
8447
8448
8449
8450
8466
8467
8468
8469
8470
8471
8472
8473
8474
8475
8476
8477
8478
8479
8480
8481
8482
8483
8484
8489
8490
8491
8492
8493
8494
8495
8496
8497
8509
8510
8511
8512
8513
8514
8515
8516
8517
8518
8519
8520
8521
8522
8523
8524
8525
8538
8539
8540
8541
8542
8543
8544
8545
8551
8552
8553
8554
8555
8556
8587
8588
8589
8590
8591
8592
8593
8594
8595
8596
8597
8598
8599
8600
8601
8602
8603
8615
8616
8617
8618
8619
8628
8629
8630
8631
8632
8633
8634
8644
8645
8646
8647
8648
8649
8650
8664
8665
8666
8667
8668
8669
8670
8671
8672
8673
8674
8675
8676
8677
8678
8679
8692
8693
8694
8695
8696
8697
8704
8705
8706
8707
8708
8709
8721
8722
8723
8724
8725
8738
8739
8740
8741
8742
8743
8744
8745
8746
8747
8748
8749
8750
8751
8752
8753
8754
8755
8756
8768
8769
8770
8771
8772
8773
8782
8783
8784
8785
8786
8818
8819
8820
8821
8822
8823
8824
8825
8826
8827
8828
8829
8830
8831
8832
8833
8834
8847
8848
8849
8850
8860
8861
8862
8863
8864
8865
8877
8896
8897
8898
8899
8900
8901
8902
8903
8904
8905
8906
8907
8908
8909
8910
8924
8925
8926
8927
8928
8936
8937
8938
8939
8940
8941
8952
8953
8954
8955
8968
8969
8970
8971
8972
8973
8974
8975
8976
8977
8978
8979
8980
8981
8982
8984
8998
8999
9048
9049
9050
9051
9052
9053
9054
9055
9056
9057
9058
9059
9089
9090
9091
9125
9126
9127
9128
9129
9130
9131
9132
9133
9134
9135
9136
9137
9138
9139
9140
9154
9155
9156
9157
9202
9203
9204
9205
9206
9207
9208
9209
9210
9211
9212
9213
9214
9215
9216
9217
9218
9245
9246
9247
9284
9285
9286
9287
9288
9289
9290
9291
9292
9293
9294
9295
9296
9297
9298
9299
9300
9301
9302
9303
9367
9368
9369
9370
9371
9372
9373
9374
9375
9376
9377
9378
9379
9380
9381
9382
9383
9384
9410
9411
9412
9448
9449
9450
9451
9452
9453
9454
9455
9456
9457
9458
9459
9460
9461
9462
9463
9477
9478
9479
9487
9488
9489
9490
9491
9492
9525
9526
9527
9528
9529
9530
9531
9532
9533
9534
9535
9536
9537
9538
9539
9540
9567
9568
9569
9570
9571
9572
9573
9608
9609
9610
9611
9612
9613
9614
9615
9616
9617
9618
9619
9620
9621
9622
9623
9624
9625
9626
9627
9628
9629
9630
9631
9632
9633
9652
9653
9654
9655
9680
9681
9693
9694
9695
9696
9697
9698
9699
9700
9701
9702
9703
9704
9705
9706
9707
9708
9709
9710
9711
9712
9713
9736
9737
9738
9739
9740
9774
9775
9776
9777
9778
9779
9780
9781
9782
9783
9784
9785
9786
9787
9788
9789
9790
9791
9804
9805
9806
9815
9816
9817
9818
9819
9820
9854
9855
9856
9857
9858
9859
9860
9861
9862
9863
9864
9865
9866
9867
9868
9869
9870
9871
9896
9897
9898
9899
9900
9901
9934
9935
9936
9937
9938
9939
9940
9941
9942
9943
9944
9945
9946
9947
9948
9949
9962
9963
9964
9965
9973
9974
9975
9976
9977
9978
9979
9980
9990
9991
9992
9993
9994
9995
9996
10009
10010
10011
10012
10013
10014
10015
10016
10017
10018
10019
10020
10021
10022
10023
10024
10038
10039
10040
10041
10042
10043
10044
10048
10049
10050
10051
10052
10053
10054
10055
10056
10065
10066
10067
10068
10069
10070
10071
10084
10085
10086
10087
10088
10089
10090
10091
10092
10093
10094
10095
10096
10097
10098
10099
10113
10114
10115
10116
10117
10118
10119
10124
10125
10126
10127
10128
10129
10130
10131
10141
10142
10143
10144
10145
10146
10147
10160
10161
10162
10163
10164
10165
10166
10167
10168
10169
10170
10171
10172
10173
10174
10175
10176
10177
10189
10190
10191
10192
10193
10194
10201
10202
10203
10204
10205
10206
10207
10222
10223
10237
10238
10239
10240
10241
10242
10243
10244
10245
10246
10247
10248
10249
10250
10251
10252
10253
10254
10266
10267
10268
10269
10270
10271
10278
10279
10280
10281
10282
10283
10284
10296
10297
10298
10299
10300
10301
10314
10315
10316
10317
10318
10319
10320
10321
10322
10323
10324
10325
10326
10327
10328
10329
10330
10331
10343
10344
10345
10346
10347
10348
10356
10357
10358
10359
10360
10361
10393
10394
10395
10396
10397
10398
10399
10400
10401
10402
10403
10404
10405
10406
10407
10421
10422
10423
10424
10425
10432
10433
10434
10435
10436
10437
10438
10439
10468
10469
10470
10471
10472
10473
10474
10475
10476
10477
10478
10479
10480
10481
10482
10483
10484
10485
10486
10498
10499
10545
10546
10547
10548
10549
10550
10551
10552
10553
10554
10555
10556
10557
10558
10574
10575
10583
10584
10585
10586
10587
10588
10589
10590
10597
10598
10599
10600
10601
10602
10603
10604
10605
10617
10618
10619
10620
10621
10622
10623
10624
10625
10626
10627
10628
10629
10630
10631
10632
10646
10647
10648
10649
10650
10651
10652
10653
10654
10655
10656
10657
10658
10659
10660
10661
10662
10663
10664
10665
10672
10673
10674
10675
10676
10677
10678
10692
10693
10694
10695
10696
10697
10698
10699
10700
10701
10702
10703
10704
10705
10706
10721
10722
10723
10724
10725
10726
10727
10728
10729
10732
10733
10734
10735
10736
10737
10738
10739
10740
10745
10746
10747
10748
10749
10750
10751
10763
10764
10765
10766
10767
10768
10769
10770
10771
10772
10773
10774
10775
10776
10777
10793
10794
10795
10796
10797
10798
10799
10800
10801
10802
10803
10804
10805
10806
10807
10808
10809
10818
10819
10820
10821
10822
10823
10824
10837
10838
10839
10840
10841
10842
10843
10844
10845
10846
10847
10848
10849
10850
10851
10852
10866
10867
10868
10869
10870
10871
10872
10880
10881
10882
10883
10916
10917
10918
10919
10920
10921
10922
10923
10924
10925
10926
10927
10928
10929
10930
10944
10945
10946
10947
10948
10956
10957
10958
10959
10960
10961
10975
10976
10991
10992
10993
10994
10995
10996
10997
10998
10999
11000
11001
11002
11003
11004
11005
11006
11020
11021
11022
11023
11024
11025
11026
11027
11028
11029
11030
11031
11032
11033
11034
11035
11036
11037
11038
11045
11046
11047
11048
11049
11050
11051
11052
11053
11054
11070
11071
11072
11073
11074
11075
11076
11077
11078
11079
11080
11096
11097
11098
11099
11100
11101
11102
11103
11104
11107
11108
11109
11110
11111
11112
11113
11121
11122
11123
11124
11125
11126
11127
11128
11138
11139
11140
11141
11142
11143
11144
11145
11146
11147
11148
11149
11150
11167
11168
11169
11170
11171
11172
11173
11174
11175
11176
11177
11178
11179
11180
11181
11182
11191
11192
11193
11194
11195
11196
11207
11208
11209
11210
11211
11212
11213
11214
11215
11216
11217
11218
11238
11239
11240
11241
11242
11243
11244
11245
11246
11247
11248
11249
11250
11251
11252
11253
11254
11255
11256
11259
11260
11261
11275
11276
11277
11278
11279
11280
11281
11282
11283
11284
11285
11286
11309
11310
11311
11312
11313
11314
11315
11316
11317
11318
11319
11320
11328
11329
11330
11331
11332
11333
11334
11346
11347
11348
11349
11350
11351
11352
11353
11354
11355
11356
11357
11358
11359
11360
11375
11376
11377
11378
11379
11380
11381
11382
11383
11384
11385
11386
11387
11388
11389
11390
11391
11392
11402
11403
11404
11405
11406
11407
11422
11423
11424
11425
11426
11427
11428
11429
11430
11431
11432
11433
11434
11435
11436
11450
11451
11452
11453
11454
11455
11462
11463
11464
11465
11466
11467
11468
11479
11480
11481
11482
11483
11498
11499
11500
11501
11502
11503
11504
11505
11506
11507
11508
11509
11510
11511
11512
11526
11527
11528
11529
11530
11531
11538
11539
11540
11541
11542
11543
11575
11576
11577
11578
11579
11580
11581
11582
11583
11584
11585
11586
11587
11588
11589
11590
11604
11605
11606
11607
11615
11616
11617
11618
11619
11620
11621
11652
11653
11654
11655
11656
11657
11658
11659
11660
11661
11662
11663
11677
11678
11679
11680
11681
11682
11683
11684
11685
11686
11687
11692
11693
11694
11695
11696
11697
11698
11699
11700
11706
11707
11721
11722
11723
11724
11725
11726
11727
11728
11729
11743
11744
11745
11746
11747
11748
11749
11750
11751
11752
11753
11754
11755
11756
11757
11758
11759
11760
11761
11762
11786
11787
11788
11789
11790
11791
11792
11793
11794
11818
11819
11820
11821
11822
11823
11824
11825
11826
11827
11828
11829
11830
11831
11832
11833
11834
11835
11836
11837
11838
11839
11840
11841
11849
11850
11851
11852
11853
11854
11855
11856
11857
11858
11859
11882
11883
11884
11885
11886
11887
11888
11889
11890
11891
11892
11893
11894
11895
11896
11897
11898
11899
11919
11920
11921
11922
11923
11924
11925
11926
11927
11944
11945
11946
11952
11953
11954
11955
11956
11957
11958
11959
11960
11961
11962
11963
11968
11969
11970
11971
11977
11978
11979
11980
11981
11982
11983
11984
11985
11986
11987
11988
11989
11990
11991
12041
12042
12043
12044
12045
12046
12047
12048
12049
12050
12051
12052
12053
12072
12073
12074
12075
12076
12082
12083
12084
12085
12086
12087
12088
12089
12090
12091
12092
12108
12109
12110
12111
12112
12113
12114
12115
12116
12117
12118
12145
12146
12147
12148
12149
12150
12151
12152
12153
12154
12155
12156
12157
12175
12176
12177
12178
12179
12180
12181
12182
12183
12209
12210
12211
12212
12213
12214
12215
12216
12217
12218
12219
12220
12227
12228
12242
12243
12244
12245
12246
12247
12248
12249
12271
12272
12273
12274
12275
12276
12277
12278
12279
12280
12281
12282
12283
12284
12285
12286
12287
12288
12307
12308
12309
12310
12311
12312
12313
12314
12340
12341
12342
12343
12344
12345
12346
12347
12348
12349
12350
12351
12352
12353
12370
12371
12372
12373
12374
12375
12376
12377
12398
12399
12400
12404
12405
12406
12407
12408
12409
12410
12411
12412
12413
12414
12415
12416
12417
12418
12435
12436
12437
12438
12439
12440
12441
12461
12462
12463
12469
12470
12471
12472
12473
12474
12475
12476
12477
12478
12479
12480
12489
12490
12496
12497
12522
12523
12524
12525
12530
12531
12532
12533
12534
12535
12536
12537
12538
12539
12540
12541
12542
12548
12549
12550
12551
12552
12553
12554
12555
12556
12557
12558
12559
12582
12583
12584
12585
12586
12589
12590
12591
12592
12593
12594
12595
12596
12597
12598
12599
12600
12601
12602
12609
12610
12611
12612
12613
12614
12615
12616
12617
12618
12619
12620
12642
12643
12644
12645
12646
12649
12650
12651
12652
12653
12654
12655
12656
12657
12658
12659
12660
12661
12662
12663
12664
12671
12672
12673
12674
12675
12676
12677
12678
12679
12680
12681
12682
12683
12684
12703
12704
12705
12706
12711
12712
12713
12714
12715
12716
12717
12718
12719
12720
12721
12722
12723
12734
12735
12736
12737
12738
12739
12740
12741
12742
12743
12744
12745
12765
12766
12767
12768
12772
12773
12774
12775
12776
12777
12778
12779
12780
12781
12782
12783
12784
12785
12793
12794
12795
12796
12797
12798
12799
12800
12801
12802
12803
12804
12826
12827
12828
12829
12834
12835
12836
12837
12838
12839
12840
12841
12842
12843
12844
12845
12846
12853
12858
12859
12860
12861
12862
12863
12864
12865
12866
12867
12868
12869
12870
12890
12891
12898
12899
12900
12901
12902
12903
12904
12905
12906
12907
12908
12909
12910
12911
12912
12913
12914
12915
12916
12928
12929
12930
12931
12932
12933
12934
12935
12936
12937
12938
12939
12940
12962
12963
12964
12965
12966
12967
12968
12969
12970
12971
12972
12982
12983
12984
12985
12986
12987
12988
12989
13003
13004
13005
13006
13007
13008
13009
13010
13011
13012
13013
13014
13015
13016
13017
13018
13019
13031
13032
13033
13034
13035
13042
13043
13044
13045
13046
13047
13048
13049
13080
13081
13082
13083
13084
13085
13086
13087
13088
13089
13090
13091
13092
13093
13094
13095
13108
13109
13110
13111
13112
13118
13119
13120
13121
13122
13123
13124
13125
13126
13127
13128
13135
13136
13137
13138
13139
13140
13153
13154
13155
13156
13157
13158
13159
13160
13161
13162
13163
13164
13165
13166
13167
13168
13183
13184
13185
13186
13187
13188
13189
13190
13191
13192
13193
13194
13195
13196
13197
13198
13199
13200
13201
13202
13203
13207
13208
13209
13210
13211
13212
13213
13225
13226
13227
13228
13229
13230
13231
13232
13233
13234
13235
13236
13237
13238
13239
13240
13256
13257
13258
13259
13260
13261
13262
13263
13264
13265
13266
13267
13268
13269
13270
13271
13272
13273
13274
13275
13279
13280
13281
13282
13283
13284
13285
13298
13299
13300
13301
13302
13303
13304
13305
13306
13307
13308
13309
13310
13311
13312
13313
13327
13328
13329
13330
13331
13332
13333
13334
13335
13336
13337
13338
13339
13340
13341
13342
13343
13344
13345
13346
13353
13354
13355
13356
13357
13358
13359
13373
13374
13375
13376
13377
13378
13379
13380
13381
13382
13383
13384
13385
13386
13387
13388
13400
13401
13402
13403
13404
13405
13406
13407
13408
13409
13412
13413
13414
13415
13416
13417
13418
13419
13445
13447
13450
13451
13452
13453
13454
13455
13456
13457
13458
13459
13460
13461
13462
13463
13464
13477
13478
13479
13480
13481
13482
13484
13488
13489
13490
13491
13492
13493
13494
13495
13496
13523
13525
13526
13527
13528
13529
13530
13531
13532
13533
13556
13557
13558
13559
13560
13561
13564
13565
13566
13567
13568
13569
13574
13575
13576
13577
13578
13579
13580
13593
13594
13595
13596
13597
13598
13599
13600
13601
13602
13603
13604
13605
13606
13607
13608
13624
13625
13626
13627
13628
13629
13630
13631
13632
13633
13634
13635
13636
13637
13638
13639
13640
13641
13642
13643
13646
13647
13648
13649
13650
13651
13652
13664
13665
13666
13667
13668
13669
13670
13671
13672
13673
13674
13675
13676
13677
13678
13679
13696
13697
13698
13699
13700
13701
13702
13703
13704
13705
13706
13707
13708
13709
13710
13711
13712
13713
13714
13715
13718
13719
13720
13721
13722
13723
13724
13725
13737
13738
13739
13740
13741
13742
13743
13744
13745
13746
13747
13748
13749
13750
13751
13752
13768
13769
13770
13771
13772
13773
13774
13775
13776
13777
13778
13779
13780
13781
13782
13783
13784
13785
13786
13787
13788
13792
13793
13794
13795
13796
13797
13810
13811
13812
13813
13814
13815
13816
13817
13818
13819
13820
13821
13822
13823
13824
13825
13840
13841
13842
13843
13844
13845
13846
13847
13848
13849
13850
13851
13852
13853
13854
13855
13856
13857
13858
13859
13860
13865
13866
13867
13868
13869
13870
13884
13885
13886
13887
13888
13889
13890
13891
13892
13893
13894
13895
13896
13897
13898
13913
13914
13915
13916
13917
13918
13919
13920
13921
13922
13923
13924
13925
13926
13927
13928
13929
13930
13931
13932
13933
13934
13939
13940
13941
13954
13955
13956
13957
13958
13959
13960
13961
13962
13963
13964
13965
13966
13984
13985
13986
13987
13988
13989
13990
13991
13992
13993
13994
13995
13996
13997
13998
13999
14000
14001
14002
14003
14022
14023
14024
14025
14026
14027
14028
14029
14030
14031
14050
14051
14052
14053
14054
14055
14056
14057
14058
14059
14060
14061
14062
14063
14064
14065
14066
14067
14068
14069
14088
14089
14090
14091
14092
14093
14094
14095
14096
14115
14116
14117
14118
14122
14123
14124
14125
14126
14127
14128
14129
14130
14131
14132
14133
14134
14146
14147
14148
14149
14150
14151
14152
14153
14154
14155
14156
14157
14158
14159
14178
14179
14180
14181
14186
14187
14188
14189
14190
14191
14192
14193
14194
14195
14196
14197
14198
14210
14211
14212
14213
14214
14215
14216
14217
14218
14219
14220
14221
14222
14241
14242
14243
14244
14245
14249
14250
14251
14252
14253
14254
14255
14256
14257
14258
14259
14260
14261
14275
14276
14277
14278
14279
14280
14281
14282
14283
14284
14285
14286
14287
14306
14307
14308
14314
14315
14316
14317
14318
14319
14320
14321
14322
14323
14324
14325
14334
14340
14341
14342
14343
14344
14345
14346
14347
14348
14349
14350
14351
14352
14370
14371
14372
14373
14378
14379
14380
14381
14382
14383
14384
14385
14386
14387
14388
14389
14390
14391
14393
14394
14395
14396
14409
14410
14411
14412
14413
14414
14415
14416
14417
14418
14419
14420
14441
14442
14443
14444
14445
14446
14447
14448
14449
14450
14451
14452
14453
14454
14455
14456
14460
14461
14462
14463
14464
14465
14466
14467
14478
14479
14480
14481
14482
14483
14484
14485
14486
14487
14488
14489
14490
14491
14508
14509
14510
14511
14512
14513
14514
14515
14516
14517
14518
14519
14520
14521
14522
14523
14524
14525
14526
14527
14531
14532
14533
14534
14535
14536
14537
14538
14552
14553
14554
14555
14556
14557
14558
14559
14560
14561
14562
14563
14564
14565
14566
14580
14581
14582
14583
14584
14585
14586
14587
14588
14589
14590
14591
14592
14593
14594
14595
14596
14597
14598
14599
14600
14606
14607
14608
14609
14610
14623
14624
14625
14626
14627
14628
14629
14630
14631
14632
14633
14634
14635
14636
14653
14654
14655
14656
14657
14658
14659
14660
14661
14662
14663
14664
14665
14666
14667
14668
14669
14670
14671
14672
14677
14678
14690
14691
14692
14693
14694
14695
14696
14697
14698
14699
14700
14701
14721
14722
14723
14726
14727
14728
14729
14730
14731
14732
14733
14734
14735
14736
14737
14738
14739
14740
14742
14743
14744
14759
14760
14761
14762
14763
14764
14765
14766
14767
14768
14769
14791
14792
14793
14794
14795
14796
14797
14798
14799
14800
14801
14802
14803
14804
14805
14809
14810
14811
14812
14813
14814
14815
14828
14829
14830
14831
14832
14833
14834
14835
14836
14837
14838
14839
14840
14841
14857
14858
14859
14860
14861
14862
14863
14864
14865
14866
14867
14868
14869
14870
14871
14872
14873
14874
14875
14881
14882
14883
14884
14885
14886
14887
14888
14900
14901
14902
14903
14904
14905
14906
14907
14908
14909
14910
14911
14912
14913
14914
14915
14916
14930
14931
14932
14933
14934
14935
14936
14937
14938
14939
14940
14941
14942
14943
14944
14945
14946
14956
14957
14958
14959
14960
14961
14976
14977
14978
14979
14980
14981
14982
14983
14984
14985
14986
14987
14988
14989
14990
14991
14992
14993
15014
15015
15051
15052
15053
15054
15055
15056
15057
15058
15059
15060
15061
15086
15087
15088
15089
15090
15091
15092
15093
15094
15095
15096
15102
15103
15104
15105
15106
15107
15108
15121
15122
15123
15124
15125
15126
15127
15128
15129
15130
15131
15132
15133
15134
15135
15151
15152
15153
15154
15155
15156
15157
15158
15159
15160
15161
15162
15163
15164
15165
15166
15167
15168
15169
15174
15175
15176
15177
15178
15179
15180
15192
15193
15194
15195
15196
15197
15198
15199
15200
15201
15202
15203
15204
15205
15206
15222
15223
15224
15225
15226
15227
15228
15229
15230
15231
15232
15233
15234
15235
15236
15237
15238
15239
15240
15241
15247
15248
15249
15250
15251
15262
15263
15264
15265
15266
15267
15268
15269
15270
15271
15272
15273
15274
15293
15294
15295
15296
15297
15298
15299
15300
15301
15302
15303
15304
15305
15306
15307
15308
15309
15310
15311
15316
15317
15320
15330
15331
15332
15333
15334
15335
15336
15337
15338
15339
15340
15360
15361
15362
15365
15366
15367
15368
15369
15370
15371
15372
15373
15374
15375
15376
15377
15378
15381
15382
15383
15384
15397
15398
15399
15400
15401
15402
15403
15404
15405
15406
15407
15408
15430
15431
15432
15433
15434
15435
15436
15437
15438
15439
15440
15441
15442
15443
15448
15449
15450
15451
15452
15453
15454
15455
15467
15468
15469
15470
15471
15472
15473
15474
15475
15476
15477
15478
15479
15480
15481
15496
15497
15498
15499
15500
15501
15502
15503
15504
15505
15506
15507
15508
15509
15510
15511
15512
15526
15543
15544
15545
15546
15547
15548
15549
15550
15551
15552
15553
15554
15555
15556
15557
15558
15559
15560
15572
15573
15574
15575
15576
15585
15586
15587
15588
15622
15623
15624
15625
15626
15627
15628
15629
15630
15631
15632
15633
15634
15635
15636
15637
15638
15639
15652
15653
15654
15664
15665
15666
15698
15699
15700
15701
15702
15703
15704
15705
15706
15707
15708
15709
15710
15711
15712
15713
15714
15715
15716
15729
15745
15746
15747
15748
15784
15785
15786
15787
15788
15789
15790
15791
15792
15793
15794
15795
15796
15797
15798
15799
15800
15801
15802
15803
15804
15805
15806
15807
15808
15809
15810
15811
15812
15813
15814
15815
15816
15817
15818
15830
15831
15832
15859
15860
15861
15873
15874
15875
15876
15877
15878
15879
15880
15881
15882
15883
15884
15885
15886
15887
15888
15889
15890
15891
15892
15893
15894
15895
15916
15917
15918
15919
15920
15955
15956
15957
15958
15959
15960
15961
15962
15963
15964
15965
15966
15967
15968
15969
15970
15971
15972
15997
15998
15999
16000
16001
16034
16035
16036
16037
16038
16039
16040
16041
16042
16043
16044
16045
16046
16047
16048
16049
16050
16051
16052
16066
16067
16077
16078
16079
16080
16081
16114
16115
16116
16117
16118
16119
16120
16121
16122
16123
16124
16125
16126
16127
16128
16129
16130
16143
16144
16145
16146
16155
16156
16157
16158
16159
16160
16161
16171
16172
16173
16174
16175
16176
16190
16191
16192
16193
16194
16195
16196
16197
16198
16199
16200
16201
16202
16203
16204
16205
16219
16220
16221
16222
16223
16224
16225
16228
16229
16230
16231
16232
16233
16234
16235
16236
16237
16238
16245
16246
16247
16248
16249
16250
16251
16264
16265
16266
16267
16268
16269
16270
16271
16272
16273
16274
16275
16276
16277
16278
16294
16295
16296
16297
16298
16299
16300
16301
16302
16303
16304
16305
16306
16307
16308
16309
16310
16311
16312
16313
16317
16318
16319
16320
16321
16322
16323
16336
16337
16338
16339
16340
16341
16342
16343
16344
16345
16346
16347
16348
16349
16365
16366
16367
16368
16369
16370
16371
16372
16373
16374
16375
16376
16377
16378
16379
16380
16381
16382
16383
16384
16389
16390
16391
16392
16393
16394
16407
16408
16409
16410
16411
16412
16413
16414
16415
16416
16417
16418
16436
16437
16438
16439
16440
16441
16442
16443
16444
16445
16446
16447
16449
16450
16451
16452
16453
16454
16459
16460
16461
16462
16463
16468
16469
16471
16473
16474
16475
16476
16477
16478
16479
16480
16481
16482
16539
16540
16541
16542
16543
16544
16545
16546
16547
16572
16574
16575
16576
16577
16578
16579
16580
16581
16582
16583
16584
16585
16586
16587
16588
16589
16590
16591
16592
16593
16594
16606
16607
16608
16609
16610
16611
16612
16613
16614
16615
16616
16637
16638
16639
16640
16641
16642
16643
16644
16645
16646
16647
16648
16649
16650
16651
16652
16653
16654
16655
16656
16657
16658
16659
16660
16661
16662
16675
16676
16677
16678
16679
16680
16681
16682
16683
16684
16685
16705
16706
16707
16708
16709
16710
16711
16712
16713
16714
16715
16716
16717
16718
16719
16720
16721
16722
16723
16724
16725
16726
16727
16728
16729
16730
16731
16743
16744
16745
16746
16747
16748
16749
16750
16751
16752
16753
16754
16777
16778
16779
16780
16781
16782
16783
16784
16785
16786
16787
16788
16789
16790
16791
16795
16796
16797
16798
16799
16800
16801
16802
16815
16816
16817
16818
16819
16820
16821
16822
16823
16824
16825
16826
16827
16828
16829
16830
16831
16844
16845
16846
16847
16848
16849
16850
16851
16852
16853
16854
16855
16856
16857
16858
16859
16860
16861
16862
16872
16873
16874
16875
16876
16891
16892
16893
16894
16895
16896
16897
16898
16899
16900
16901
16902
16903
16904
16905
16906
16920
16921
16922
16923
16924
16925
16930
16931
16932
16933
16934
16935
16936
16937
16938
16939
16940
16946
16947
16948
16949
16950
16951
16952
16965
16966
16967
16968
16969
16970
16971
16972
16973
16974
16975
16976
16977
16978
16979
16980
16995
16996
16997
16998
16999
17000
17001
17002
17003
17004
17005
17006
17007
17008
17009
17010
17011
17012
17013
17014
17020
17021
17022
17023
17024
17025
17039
17040
17041
17042
17043
17044
17045
17046
17047
17048
17049
17050
17051
17052
17053
17054
17068
17069
17070
17071
17072
17073
17074
17075
17076
17077
17078
17079
17080
17081
17082
17083
17084
17085
17086
17094
17095
17096
17097
17098
17099
17113
17114
17115
17116
17117
17118
17119
17120
17121
17122
17123
17124
17125
17126
17127
17128
17142
17143
17144
17145
17146
17147
17148
17149
17150
17151
17152
17153
17154
17155
17156
17157
17158
17159
17160
17161
17162
17168
17169
17170
17171
17172
17173
17174
17187
17188
17189
17190
17191
17192
17193
17194
17195
17196
17197
17198
17199
17200
17201
17202
17203
17217
17218
17219
17220
17221
17222
17223
17224
17225
17226
17227
17228
17229
17230
17231
17232
17233
17234
17235
17236
17237
17241
17242
17243
17244
17245
17246
17247
17260
17261
17262
17263
17264
17265
17266
17267
17268
17269
17270
17271
17272
17273
17274
17275
17291
17292
17293
17294
17295
17296
17297
17298
17299
17300
17301
17302
17303
17304
17305
17306
17307
17308
17309
17313
17314
17315
17316
17317
17318
17319
17331
17332
17333
17334
17335
17336
17337
17338
17339
17340
17341
17342
17343
17344
17345
17363
17364
17365
17366
17367
17368
17369
17370
17371
17372
17373
17374
17375
17376
17377
17378
17379
17380
17381
17384
17385
17386
17387
17388
17389
17390
17402
17403
17404
17405
17406
17407
17408
17409
17410
17411
17412
17413
17414
17415
17433
17434
17435
17436
17437
17438
17439
17440
17441
17442
17443
17444
17445
17446
17447
17448
17449
17450
17451
17456
17457
17458
17459
17472
17473
17474
17475
17476
17477
17478
17479
17480
17481
17482
17483
17484
17502
17503
17504
17505
17506
17507
17508
17509
17510
17511
17512
17513
17514
17515
17516
17517
17518
17519
17520
17521
17525
17526
17527
17541
17542
17543
17544
17545
17546
17547
17548
17549
17550
17551
17572
17573
17574
17575
17576
17577
17578
17579
17580
17581
17582
17583
17584
17585
17586
17587
17588
17589
17591
17592
17593
17594
17595
17596
17597
17610
17611
17612
17613
17614
17615
17616
17617
17618
17619
17620
17621
17622
17643
17644
17645
17646
17647
17648
17649
17650
17651
17652
17653
17654
17655
17656
17657
17658
17663
17664
17665
17666
17667
17668
17669
17670
17682
17683
17684
17685
17686
17687
17688
17689
17690
17691
17692
17693
17694
17695
17696
17697
17698
17699
17712
17713
17714
17715
17716
17717
17718
17719
17720
17721
17722
17723
17724
17725
17726
17727
17728
17729
17741
17742
17743
17759
17760
17761
17762
17763
17764
17765
17766
17767
17768
17769
17770
17771
17772
17773
17774
17775
17788
17789
17790
17791
17792
17798
17799
17800
17801
17802
17803
17804
17805
17806
17807
17816
17817
17818
17819
17820
17821
17834
17835
17836
17837
17838
17839
17840
17841
17842
17843
17844
17845
17846
17847
17848
17849
17850
17863
17864
17865
17866
17867
17868
17869
17870
17871
17872
17873
17874
17875
17876
17877
17878
17879
17880
17890
17891
17892
17893
17894
17895
17909
17910
17911
17912
17913
17914
17915
17916
17917
17918
17919
17920
17921
17922
17923
17924
17938
17939
17940
17941
17942
17943
17944
17947
17948
17949
17950
17951
17952
17953
17954
17955
17956
17966
17967
17982
17983
17984
17985
17986
17987
17988
17989
17990
17991
17992
17993
17994
17995
17996
17997
17998
17999
18023
18042
18043
18044
18045
18060
18061
18062
18063
18064
18065
18066
18067
18068
18069
18070
18071
18072
18096
18097
18098
18099
18100
18101
18102
18103
18104
18105
18106
18107
18108
18113
18114
18115
18116
18117
18130
18131
18132
18133
18134
18135
18136
18137
18138
18139
18140
18141
18142
18160
18161
18162
18163
18164
18165
18166
18167
18168
18169
18170
18171
18172
18173
18174
18175
18176
18177
18178
18179
18184
18198
18199
18200
18201
18202
18203
18204
18205
18206
18207
18208
18209
18229
18230
18231
18232
18233
18234
18235
18236
18237
18238
18239
18240
18241
18242
18243
18244
18245
18246
18247
18251
18252
18266
18267
18268
18269
18270
18271
18272
18273
18274
18275
18276
18296
18297
18298
18299
18300
18301
18302
18303
18304
18305
18306
18307
18308
18309
18310
18311
18312
18313
18314
18334
18335
18336
18337
18338
18339
18340
18341
18342
18363
18364
18365
18366
18367
18368
18369
18370
18371
18372
18373
18374
18375
18376
18377
18378
18379
18380
18381
18398
18399
18400
18401
18402
18403
18404
18405
18406
18407
18426
18427
18428
18434
18435
18436
18437
18438
18439
18440
18441
18442
18443
18444
18445
18446
18447
18462
18463
18464
18465
18466
18467
18468
18469
18470
18471
18472
18498
18499
18500
18501
18502
18503
18504
18505
18506
18507
18508
18509
18510
18514
18515
18516
18517
18530
18531
18532
18533
18534
18535
18536
18537
18538
18539
18540
18561
18562
18563
18564
18565
18566
18567
18568
18569
18570
18571
18572
18573
18574
18575
18576
18577
18578
18579
18580
18581
18582
18583
18584
18585
18586
18598
18599
18600
18601
18602
18603
18604
18605
18606
18607
18608
18609
18631
18632
18633
18634
18635
18636
18637
18638
18639
18640
18641
18642
18643
18644
18645
18646
18649
18650
18651
18652
18653
18654
18655
18656
18668
18669
18670
18671
18672
18673
18674
18675
18676
18677
18678
18679
18680
18681
18698
18699
18700
18701
18702
18703
18704
18705
18706
18707
18708
18709
18710
18711
18712
18713
18714
18715
18716
18721
18722
18723
18724
18725
18726
18727
18728
18742
18743
18744
18745
18746
18747
18748
18749
18750
18751
18752
18753
18754
18755
18756
18770
18771
18772
18773
18774
18775
18776
18777
18778
18779
18780
18781
18782
18783
18784
18785
18786
18787
18788
18789
18796
18797
18798
18799
18800
18801
18802
18816
18817
18818
18819
18820
18821
18822
18823
18824
18825
18826
18827
18828
18829
18830
18831
18845
18846
18847
18848
18849
18850
18851
18852
18853
18854
18855
18856
18857
18858
18859
18860
18861
18862
18863
18871
18872
18873
18874
18875
18876
18877
18891
18892
18893
18894
18895
18896
18897
18898
18899
18900
18901
18902
18903
18904
18905
18906
18919
18920
18921
18922
18923
18924
18925
18926
18927
18928
18929
18930
18931
18932
18933
18934
18935
18936
18937
18947
18948
18949
18950
18951
18952
18967
18968
18969
18970
18971
18972
18973
18974
18975
18976
18977
18978
18979
18980
18981
18982
18983
18995
18996
18997
18998
18999
19000
19005
19006
19007
19008
19009
19010
19011
19012
19013
19014
19022
19023
19024
19025
19026
19042
19043
19044
19045
19046
19047
19048
19049
19050
19051
19052
19053
19054
19055
19056
19057
19071
19072
19073
19074
19075
19076
19077
19078
19079
19080
19081
19082
19083
19084
19085
19086
19087
19088
19089
19090
19091
19092
19097
19098
19099
19112
19113
19114
19115
19116
19117
19118
19119
19120
19121
19122
19123
19143
19144
19145
19146
19147
19148
19149
19150
19151
19152
19153
19154
19155
19156
19157
19158
19159
19160
19161
19162
19180
19181
19182
19183
19184
19185
19186
19187
19188
19189
19190
19212
19213
19214
19215
19216
19217
19218
19219
19220
19221
19222
19223
19224
19225
19226
19227
19228
19229
19230
19231
19232
19233
19234
19248
19249
19250
19251
19252
19253
19254
19255
19256
19257
19258
19259
19282
19283
19284
19285
19286
19287
19288
19289
19290
19291
19292
19293
19294
19295
19296
19297
19300
19301
19302
19303
19304
19305
19306
19319
19320
19321
19322
19323
19324
19325
19326
19327
19328
19329
19330
19331
19332
19333
19334
19348
19349
19350
19351
19352
19353
19354
19355
19356
19357
19358
19359
19360
19361
19362
19363
19364
19365
19375
19376
19377
19378
19379
19392
19393
19394
19395
19396
19397
19398
19399
19400
19401
19402
19403
19404
19405
19406
19407
19408
19422
19423
19424
19425
19426
19427
19428
19432
19433
19434
19435
19436
19437
19438
19439
19440
19468
19469
19470
19471
19472
19473
19474
19475
19476
19477
19478
19479
19480
19481
19482
19483
19484
19485
19486
19487
19488
19547
19548
19549
19550
19551
19552
19553
19554
19555
19556
19557
19558
19584
19585
19586
19587
19588
19589
19590
19591
19592
19593
19597
19598
19599
19600
19601
19602
19603
19614
19615
19616
19617
19618
19619
19620
19621
19622
19623
19624
19625
19626
19627
19628
19647
19648
19649
19650
19651
19652
19653
19654
19655
19656
19657
19658
19659
19660
19661
19662
19663
19664
19667
19668
19669
19670
19671
19672
19673
19686
19687
19688
19689
19690
19691
19692
19693
19694
19695
19696
19697
19698
19699
19717
19718
19719
19720
19721
19722
19723
19724
19725
19726
19727
19728
19729
19730
19731
19732
19733
19734
19735
19738
19739
19740
19741
19742
19743
19744
19756
19757
19758
19759
19760
19761
19762
19763
19764
19765
19766
19767
19768
19769
19770
19787
19788
19789
19790
19791
19792
19793
19794
19795
19796
19797
19798
19799
19800
19801
19802
19803
19804
19805
19806
19809
19810
19811
19812
19813
19814
19815
19827
19828
19829
19830
19831
19832
19833
19834
19835
19836
19837
19838
19839
19840
19858
19859
19860
19861
19862
19863
19864
19865
19866
19867
19868
19869
19870
19871
19872
19873
19874
19875
19881
19882
19883
19897
19898
19899
19900
19901
19902
19903
19904
19905
19932
19933
19934
19935
19936
19937
19938
19939
19940
19941
19942
19966
19967
19968
19969
19970
19987
19988
19989
19990
19999
20000
20001
20002
20011
20012
20013
20064
20065
20986
20987
20990
20991
